# wavelength (nm), relative flux
1.000000000000000000e+00,9.999999999999142908e-01
1.099909990999099918e+00,9.999999999998961941e-01
1.199819981998199836e+00,9.999999999998757660e-01
1.299729972997299754e+00,9.999999999998541167e-01
1.399639963996399672e+00,9.999999999998304689e-01
1.499549954995499590e+00,9.999999999998048228e-01
1.599459945994599508e+00,9.999999999997774003e-01
1.699369936993699426e+00,9.999999999997483124e-01
1.799279927992799344e+00,9.999999999997171152e-01
1.899189918991899262e+00,9.999999999996841415e-01
1.999099909990999180e+00,9.999999999996492805e-01
2.099009900990099098e+00,9.999999999996121991e-01
2.198919891989199016e+00,9.999999999995734523e-01
2.298829882988298934e+00,9.999999999995323741e-01
2.398739873987398852e+00,9.999999999994898525e-01
2.498649864986498770e+00,9.999999999994453326e-01
2.598559855985598688e+00,9.999999999993985922e-01
2.698469846984698606e+00,9.999999999993497424e-01
2.798379837983798524e+00,9.999999999992992272e-01
2.898289828982898442e+00,9.999999999992463806e-01
2.998199819981998360e+00,9.999999999991918687e-01
3.098109810981097834e+00,9.999999999991346922e-01
3.198019801980197752e+00,9.999999999990758504e-01
3.297929792979297670e+00,9.999999999990150101e-01
3.397839783978397588e+00,9.999999999989517274e-01
3.497749774977497506e+00,9.999999999988866684e-01
3.597659765976597424e+00,9.999999999988189447e-01
3.697569756975697342e+00,9.999999999987495558e-01
3.797479747974797260e+00,9.999999999986779464e-01
3.897389738973897177e+00,9.999999999986041166e-01
3.997299729972997095e+00,9.999999999985277332e-01
4.097209720972097458e+00,9.999999999984495735e-01
4.197119711971197376e+00,9.999999999983691934e-01
4.297029702970297294e+00,9.999999999982865928e-01
4.396939693969397212e+00,9.999999999982017718e-01
4.496849684968497129e+00,9.999999999981141752e-01
4.596759675967597047e+00,9.999999999980245802e-01
4.696669666966696965e+00,9.999999999979326537e-01
4.796579657965796883e+00,9.999999999978385068e-01
4.896489648964896801e+00,9.999999999977419174e-01
4.996399639963996719e+00,9.999999999976433296e-01
5.096309630963095749e+00,9.999999999975419662e-01
5.196219621962195667e+00,9.999999999974382714e-01
5.296129612961295585e+00,9.999999999973323561e-01
5.396039603960395503e+00,9.999999999972236653e-01
5.495949594959495421e+00,9.999999999971126430e-01
5.595859585958595339e+00,9.999999999969994002e-01
5.695769576957695257e+00,9.999999999968833819e-01
5.795679567956795175e+00,9.999999999967649211e-01
5.895589558955895093e+00,9.999999999966443509e-01
5.995499549954995011e+00,9.999999999965208941e-01
6.095409540954094929e+00,9.999999999963949948e-01
6.195319531953194847e+00,9.999999999962662089e-01
6.295229522952294765e+00,9.999999999961352026e-01
6.395139513951394683e+00,9.999999999960014208e-01
6.495049504950494601e+00,9.999999999958650854e-01
6.594959495949594519e+00,9.999999999957259744e-01
6.694869486948694437e+00,9.999999999955845320e-01
6.794779477947794355e+00,9.999999999954399810e-01
6.894689468946894273e+00,9.999999999952926544e-01
6.994599459945994191e+00,9.999999999951433294e-01
7.094509450945094109e+00,9.999999999949908958e-01
7.194419441944194027e+00,9.999999999948353535e-01
7.294329432943293945e+00,9.999999999946774798e-01
7.394239423942393863e+00,9.999999999945166085e-01
7.494149414941493781e+00,9.999999999943526285e-01
7.594059405940593699e+00,9.999999999941860951e-01
7.693969396939693617e+00,9.999999999940170081e-01
7.793879387938793535e+00,9.999999999938445905e-01
7.893789378937893453e+00,9.999999999936696193e-01
7.993699369936993371e+00,9.999999999934912065e-01
8.093609360936092401e+00,9.999999999933102401e-01
8.193519351935194095e+00,9.999999999931263872e-01
8.293429342934292237e+00,9.999999999929392036e-01
8.393339333933393931e+00,9.999999999927492444e-01
8.493249324932492073e+00,9.999999999925561767e-01
8.593159315931593767e+00,9.999999999923601113e-01
8.693069306930691909e+00,9.999999999921609373e-01
8.792979297929793603e+00,9.999999999919586546e-01
8.892889288928891744e+00,9.999999999917532634e-01
8.992799279927993439e+00,9.999999999915445414e-01
9.092709270927091580e+00,9.999999999913328219e-01
9.192619261926191498e+00,9.999999999911178827e-01
9.292529252925291416e+00,9.999999999908996129e-01
9.392439243924391334e+00,9.999999999906784565e-01
9.492349234923491252e+00,9.999999999904535253e-01
9.592259225922591170e+00,9.999999999902255965e-01
9.692169216921691088e+00,9.999999999899943370e-01
9.792079207920791006e+00,9.999999999897596359e-01
9.891989198919890924e+00,9.999999999895216041e-01
9.991899189918990842e+00,9.999999999892804636e-01
1.009180918091809076e+01,9.999999999890355484e-01
1.019171917191719068e+01,9.999999999887870805e-01
1.029162916291629060e+01,9.999999999885355040e-01
1.039153915391539051e+01,9.999999999882802637e-01
1.049144914491449043e+01,9.999999999880215817e-01
1.059135913591359035e+01,9.999999999877592360e-01
1.069126912691269027e+01,9.999999999874933376e-01
1.079117911791179019e+01,9.999999999872239975e-01
1.089108910891089010e+01,9.999999999869507716e-01
1.099099909990999002e+01,9.999999999866739930e-01
1.109090909090908994e+01,9.999999999863936617e-01
1.119081908190818986e+01,9.999999999861094446e-01
1.129072907290728978e+01,9.999999999858214528e-01
1.139063906390638969e+01,9.999999999855301303e-01
1.149054905490548961e+01,9.999999999852346999e-01
1.159045904590458953e+01,9.999999999849351617e-01
1.169036903690368945e+01,9.999999999846318488e-01
1.179027902790278937e+01,9.999999999843250942e-01
1.189018901890188928e+01,9.999999999840142317e-01
1.199009900990098920e+01,9.999999999836992615e-01
1.209000900090008912e+01,9.999999999833805164e-01
1.218991899189918904e+01,9.999999999830575526e-01
1.228982898289828896e+01,9.999999999827309249e-01
1.238973897389738887e+01,9.999999999823996344e-01
1.248964896489648879e+01,9.999999999820646801e-01
1.258955895589558871e+01,9.999999999817253959e-01
1.268946894689468863e+01,9.999999999813823370e-01
1.278937893789378855e+01,9.999999999810345042e-01
1.288928892889288846e+01,9.999999999806828965e-01
1.298919891989198838e+01,9.999999999803269590e-01
1.308910891089108830e+01,9.999999999799664696e-01
1.318901890189018822e+01,9.999999999796018724e-01
1.328892889288928814e+01,9.999999999792330563e-01
1.338883888388838805e+01,9.999999999788596883e-01
1.348874887488748797e+01,9.999999999784818794e-01
1.358865886588658789e+01,9.999999999780996296e-01
1.368856885688568781e+01,9.999999999777130499e-01
1.378847884788478773e+01,9.999999999773215853e-01
1.388838883888388764e+01,9.999999999769259018e-01
1.398829882988298756e+01,9.999999999765252223e-01
1.408820882088208748e+01,9.999999999761203240e-01
1.418811881188118740e+01,9.999999999757106517e-01
1.428802880288028732e+01,9.999999999752960944e-01
1.438793879387938723e+01,9.999999999748770962e-01
1.448784878487848715e+01,9.999999999744532131e-01
1.458775877587758707e+01,9.999999999740241119e-01
1.468766876687668699e+01,9.999999999735906808e-01
1.478757875787578691e+01,9.999999999731522538e-01
1.488748874887488682e+01,9.999999999727087197e-01
1.498739873987398674e+01,9.999999999722604116e-01
1.508730873087308666e+01,9.999999999718068855e-01
1.518721872187218658e+01,9.999999999713483634e-01
1.528712871287128650e+01,9.999999999708846232e-01
1.538703870387038641e+01,9.999999999704157760e-01
1.548694869486948633e+01,9.999999999699422659e-01
1.558685868586858625e+01,9.999999999694630937e-01
1.568676867686768617e+01,9.999999999689787034e-01
1.578667866786678609e+01,9.999999999684892060e-01
1.588658865886588600e+01,9.999999999679940466e-01
1.598649864986498592e+01,9.999999999674935580e-01
1.608640864086408584e+01,9.999999999669879625e-01
1.618631863186318753e+01,9.999999999664765937e-01
1.628622862286228568e+01,9.999999999659598959e-01
1.638613861386138382e+01,9.999999999654374250e-01
1.648604860486048551e+01,9.999999999649096249e-01
1.658595859585958721e+01,9.999999999643758297e-01
1.668586858685868535e+01,9.999999999638367054e-01
1.678577857785778349e+01,9.999999999632919190e-01
1.688568856885688518e+01,9.999999999627410263e-01
1.698559855985598688e+01,9.999999999621842495e-01
1.708550855085508502e+01,9.999999999616218105e-01
1.718541854185418316e+01,9.999999999610535983e-01
1.728532853285328486e+01,9.999999999604790579e-01
1.738523852385238300e+01,9.999999999598986333e-01
1.748514851485148469e+01,9.999999999593123245e-01
1.758505850585058283e+01,9.999999999587196875e-01
1.768496849684968453e+01,9.999999999581208332e-01
1.778487848784878267e+01,9.999999999575159837e-01
1.788478847884788436e+01,9.999999999569044729e-01
1.798469846984698250e+01,9.999999999562869668e-01
1.808460846084608420e+01,9.999999999556630215e-01
1.818451845184518234e+01,9.999999999550326368e-01
1.828442844284428404e+01,9.999999999543959239e-01
1.838433843384338218e+01,9.999999999537526607e-01
1.848424842484248387e+01,9.999999999531025141e-01
1.858415841584158201e+01,9.999999999524460392e-01
1.868406840684068371e+01,9.999999999517827920e-01
1.878397839783978185e+01,9.999999999511125504e-01
1.888388838883888354e+01,1.999999999900871350e-01
1.898379837983798168e+01,1.999999999899503833e-01
1.908370837083708338e+01,1.999999999898122993e-01
1.918361836183618152e+01,1.999999999896727720e-01
1.928352835283528321e+01,1.999999999895318847e-01
1.938343834383438136e+01,1.999999999893895264e-01
1.948334833483348305e+01,1.999999999892457525e-01
1.958325832583258119e+01,1.999999999891004521e-01
1.968316831683168289e+01,1.999999999889538471e-01
1.978307830783078103e+01,1.999999999888056879e-01
1.988298829882988272e+01,1.999999999886560853e-01
1.998289828982898086e+01,1.999999999885049839e-01
2.008280828082808256e+01,1.999999999883523005e-01
2.018271827182718070e+01,1.999999999881982571e-01
2.028262826282628239e+01,1.999999999880425205e-01
2.038253825382538054e+01,1.999999999878853962e-01
2.048244824482448223e+01,1.999999999877265788e-01
2.058235823582358037e+01,1.999999999875662626e-01
2.068226822682268207e+01,1.999999999874043644e-01
2.078217821782178021e+01,1.999999999872408563e-01
2.088208820882088190e+01,1.999999999870757661e-01
2.098199819981998004e+01,1.999999999869090661e-01
2.108190819081908174e+01,1.999999999867406730e-01
2.118181818181817988e+01,1.999999999865706701e-01
2.128172817281728157e+01,1.999999999863989464e-01
2.138163816381637972e+01,1.999999999862256128e-01
2.148154815481548141e+01,1.999999999860505029e-01
2.158145814581457955e+01,1.999999999858737554e-01
2.168136813681368125e+01,1.999999999856953148e-01
2.178127812781277939e+01,1.999999999855150701e-01
2.188118811881188108e+01,1.999999999853330768e-01
2.198109810981097922e+01,1.999999999851493904e-01
2.208100810081008092e+01,1.999999999849638443e-01
2.218091809180917906e+01,1.999999999847765220e-01
2.228082808280828075e+01,1.999999999845874232e-01
2.238073807380737890e+01,1.999999999843964371e-01
2.248064806480648059e+01,1.999999999842036469e-01
2.258055805580557873e+01,1.999999999840089970e-01
2.268046804680468043e+01,1.999999999838124043e-01
2.278037803780377857e+01,1.999999999836139797e-01
2.288028802880288026e+01,1.999999999834136122e-01
2.298019801980197840e+01,1.999999999832113851e-01
2.308010801080108010e+01,1.999999999830071595e-01
2.318001800180017824e+01,1.999999999828009356e-01
2.327992799279927993e+01,1.999999999825928243e-01
2.337983798379837808e+01,1.999999999823826313e-01
2.347974797479747977e+01,1.999999999821705232e-01
2.357965796579657791e+01,1.999999999819563057e-01
2.367956795679567961e+01,1.999999999817400065e-01
2.377947794779477775e+01,1.999999999815217366e-01
2.387938793879387944e+01,1.999999999813013574e-01
2.397929792979297758e+01,1.999999999810788409e-01
2.407920792079207928e+01,1.999999999808542150e-01
2.417911791179117742e+01,1.999999999806274520e-01
2.427902790279027911e+01,1.999999999803984962e-01
2.437893789378937726e+01,1.999999999801674033e-01
2.447884788478847895e+01,1.999999999799341177e-01
2.457875787578757709e+01,1.999999999796985839e-01
2.467866786678667879e+01,1.999999999794608296e-01
2.477857785778577693e+01,1.999999999792207439e-01
2.487848784878487862e+01,1.999999999789784932e-01
2.497839783978397676e+01,1.999999999787338556e-01
2.507830783078307846e+01,1.999999999784869420e-01
2.517821782178217660e+01,1.999999999782376692e-01
2.527812781278127829e+01,1.999999999779860094e-01
2.537803780378037644e+01,1.999999999777319903e-01
2.547794779477947813e+01,1.999999999774755843e-01
2.557785778577857627e+01,1.999999999772167358e-01
2.567776777677767797e+01,1.999999999769554448e-01
2.577767776777677611e+01,1.999999999766916281e-01
2.587758775877587780e+01,1.999999999764253689e-01
2.597749774977497594e+01,1.999999999761565839e-01
2.607740774077407764e+01,1.999999999758852454e-01
2.617731773177317578e+01,1.999999999756113533e-01
2.627722772277227747e+01,1.999999999753348523e-01
2.637713771377137562e+01,1.999999999750557422e-01
2.647704770477047731e+01,1.999999999747740231e-01
2.657695769576957545e+01,1.999999999744895840e-01
2.667686768676867359e+01,1.999999999742025358e-01
2.677677767776777529e+01,1.999999999739127121e-01
2.687668766876687343e+01,1.999999999736201406e-01
2.697659765976597512e+01,1.999999999733248768e-01
2.707650765076507327e+01,1.999999999730268374e-01
2.717641764176417496e+01,1.999999999727258837e-01
2.727632763276327310e+01,1.999999999724221822e-01
2.737623762376237480e+01,1.999999999721155941e-01
2.747614761476147294e+01,1.999999999718060639e-01
2.757605760576057463e+01,1.999999999714936194e-01
2.767596759675967277e+01,1.999999999711782328e-01
2.777587758775877447e+01,1.999999999708599319e-01
2.787578757875787261e+01,1.999999999705386333e-01
2.797569756975697430e+01,1.999999999702141984e-01
2.807560756075607244e+01,1.999999999698867936e-01
2.817551755175517414e+01,1.999999999695561970e-01
2.827542754275427228e+01,1.999999999692225749e-01
2.837533753375337398e+01,1.999999999688857610e-01
2.847524752475247212e+01,1.999999999685457830e-01
2.857515751575157381e+01,1.999999999682025853e-01
2.867506750675067195e+01,1.999999999678560847e-01
2.877497749774977365e+01,1.999999999675063644e-01
2.887488748874887179e+01,1.999999999671533690e-01
2.897479747974797348e+01,1.999999999667970429e-01
2.907470747074707162e+01,1.999999999664372474e-01
2.917461746174617332e+01,1.999999999660741767e-01
2.927452745274527146e+01,1.999999999657076089e-01
2.937443744374437316e+01,1.999999999653375993e-01
2.947434743474347130e+01,1.999999999649641202e-01
2.957425742574257299e+01,1.999999999645869775e-01
2.967416741674167113e+01,1.999999999642063653e-01
2.977407740774077283e+01,1.999999999638220616e-01
2.987398739873987097e+01,1.999999999634342329e-01
2.997389738973897266e+01,1.999999999630426850e-01
3.007380738073807080e+01,1.999999999626473901e-01
3.017371737173717250e+01,1.999999999622483760e-01
3.027362736273627064e+01,1.999999999618455870e-01
3.037353735373537233e+01,1.999999999614389401e-01
3.047344734473447048e+01,1.999999999610284629e-01
3.057335733573357217e+01,1.999999999606140999e-01
3.067326732673267031e+01,1.999999999601957956e-01
3.077317731773177201e+01,1.999999999597734668e-01
3.087308730873087015e+01,1.999999999593471689e-01
3.097299729972997184e+01,1.999999999589167632e-01
3.107290729072906998e+01,1.999999999584822774e-01
3.117281728172817168e+01,1.999999999580436283e-01
3.127272727272726982e+01,1.999999999576008713e-01
3.137263726372637151e+01,1.999999999571538400e-01
3.147254725472546966e+01,1.999999999567025621e-01
3.157245724572457135e+01,1.999999999562470099e-01
3.167236723672366949e+01,1.999999999557870445e-01
3.177227722772277119e+01,1.999999999553226937e-01
3.187218721872186933e+01,1.999999999548539020e-01
3.197209720972097102e+01,1.999999999543806140e-01
3.207200720072006561e+01,1.999999999539027740e-01
3.217191719171917441e+01,1.999999999534204653e-01
3.227182718271826900e+01,1.999999999529334382e-01
3.237173717371737069e+01,1.999999999524417482e-01
3.247164716471647239e+01,1.999999999519452842e-01
3.257155715571556698e+01,1.999999999514442128e-01
3.267146714671466867e+01,1.999999999509382009e-01
3.277137713771377037e+01,1.999999999504273318e-01
3.287128712871286496e+01,1.999999999499115777e-01
3.297119711971197376e+01,1.999999999493907721e-01
3.307110711071106834e+01,1.999999999488649982e-01
3.317101710171017004e+01,9.999999997416707531e-01
3.327092709270927173e+01,9.999999997389911188e-01
3.337083708370836632e+01,9.999999997362849502e-01
3.347074707470746802e+01,9.999999997335530244e-01
3.357065706570656971e+01,9.999999997307945643e-01
3.367056705670567140e+01,9.999999997280093478e-01
3.377047704770476599e+01,9.999999997251971529e-01
3.387038703870386769e+01,9.999999997223577575e-01
3.397029702970296938e+01,9.999999997194904955e-01
3.407020702070207108e+01,9.999999997165955889e-01
3.417011701170116567e+01,9.999999997136723717e-01
3.427002700270026736e+01,9.999999997107208438e-01
3.436993699369936905e+01,9.999999997077404501e-01
3.446984698469847075e+01,9.999999997047307465e-01
3.456975697569756534e+01,9.999999997016920661e-01
3.466966696669666703e+01,9.999999996986232986e-01
3.476957695769576873e+01,9.999999996955246662e-01
3.486948694869487042e+01,9.999999996923956136e-01
3.496939693969396501e+01,9.999999996892358078e-01
3.506930693069306670e+01,9.999999996860451379e-01
3.516921692169216840e+01,9.999999996828228266e-01
3.526912691269127009e+01,9.999999996795687629e-01
3.536903690369036468e+01,9.999999996762830579e-01
3.546894689468946638e+01,9.999999996729644902e-01
3.556885688568856807e+01,9.999999996696135041e-01
3.566876687668766976e+01,9.999999996662293222e-01
3.576867686768676435e+01,9.999999996628118337e-01
3.586858685868586605e+01,9.999999996593601503e-01
3.596849684968496774e+01,9.999999996558744941e-01
3.606840684068406944e+01,9.999999996523540879e-01
3.616831683168316403e+01,9.999999996487987097e-01
3.626822682268226572e+01,9.999999996452080264e-01
3.636813681368136741e+01,9.999999996415815939e-01
3.646804680468046911e+01,9.999999996379186351e-01
3.656795679567956370e+01,9.999999996342193720e-01
3.666786678667866539e+01,9.999999996304830274e-01
3.676777677767776709e+01,9.999999996267092683e-01
3.686768676867686878e+01,9.999999996228976507e-01
3.696759675967596337e+01,9.999999996190479523e-01
3.706750675067506506e+01,9.999999996151597292e-01
3.716741674167416676e+01,9.999999996112319822e-01
3.726732673267326845e+01,9.999999996072650443e-01
3.736723672367236304e+01,9.999999996032578053e-01
3.746714671467146474e+01,9.999999995992101542e-01
3.756705670567056643e+01,9.999999995951213139e-01
3.766696669666966812e+01,9.999999995909915063e-01
3.776687668766876271e+01,9.999999995868195102e-01
3.786678667866786441e+01,9.999999995826053256e-01
3.796669666966696610e+01,9.999999995783480644e-01
3.806660666066606780e+01,9.999999995740477265e-01
3.816651665166516239e+01,9.999999995697033128e-01
3.826642664266426408e+01,9.999999995653143792e-01
3.836633663366336577e+01,9.999999995608809256e-01
3.846624662466246747e+01,9.999999995564018418e-01
3.856615661566156206e+01,9.999999995518766838e-01
3.866606660666066375e+01,9.999999995473051184e-01
3.876597659765976545e+01,9.999999995426868127e-01
3.886588658865886714e+01,9.999999995380206563e-01
3.896579657965796173e+01,9.999999995333064273e-01
3.906570657065706342e+01,9.999999995285435705e-01
3.916561656165616512e+01,9.999999995237311978e-01
3.926552655265526681e+01,9.999999995188694202e-01
3.936543654365436140e+01,9.999999995139564613e-01
3.946534653465346310e+01,9.999999995089925431e-01
3.956525652565256479e+01,9.999999995039769995e-01
3.966516651665165938e+01,9.999999994989096086e-01
3.976507650765076107e+01,9.999999994937887049e-01
3.986498649864986277e+01,9.999999994886142884e-01
3.996489648964896446e+01,9.999999994833859152e-01
4.006480648064805905e+01,9.999999994781024748e-01
4.016471647164716074e+01,9.999999994727635233e-01
4.026462646264626244e+01,9.999999994673683945e-01
4.036453645364536413e+01,9.999999994619158672e-01
4.046444644464445872e+01,9.999999994564062744e-01
4.056435643564356042e+01,9.999999994508379508e-01
4.066426642664266211e+01,9.999999994452108965e-01
4.076417641764176381e+01,9.999999994395237790e-01
