# wavelength (nm), relative flux
1.000000000000000000e+00,9.999999999999664713e-01
1.099909990999099918e+00,9.999999999999592548e-01
1.199819981998199836e+00,9.999999999999514833e-01
1.299729972997299754e+00,9.999999999999429345e-01
1.399639963996399672e+00,9.999999999999337197e-01
1.499549954995499590e+00,9.999999999999238387e-01
1.599459945994599508e+00,9.999999999999131806e-01
1.699369936993699426e+00,9.999999999999019673e-01
1.799279927992799344e+00,9.999999999998896438e-01
1.899189918991899262e+00,9.999999999998769873e-01
1.999099909990999180e+00,9.999999999998633315e-01
2.099009900990099098e+00,9.999999999998492317e-01
2.198919891989199016e+00,9.999999999998343547e-01
2.298829882988298934e+00,9.999999999998184785e-01
2.398739873987398852e+00,9.999999999998018252e-01
2.498649864986498770e+00,9.999999999997848388e-01
2.598559855985598688e+00,9.999999999997668532e-01
2.698469846984698606e+00,9.999999999997483124e-01
2.798379837983798524e+00,9.999999999997288835e-01
2.898289828982898442e+00,9.999999999997085665e-01
2.998199819981998360e+00,9.999999999996875832e-01
3.098109810981097834e+00,9.999999999996658229e-01
3.198019801980197752e+00,9.999999999996436184e-01
3.297929792979297670e+00,9.999999999996203037e-01
3.397839783978397588e+00,9.999999999995961009e-01
3.497749774977497506e+00,9.999999999995712319e-01
3.597659765976597424e+00,9.999999999995456967e-01
3.697569756975697342e+00,9.999999999995196065e-01
3.797479747974797260e+00,9.999999999994922950e-01
3.897389738973897177e+00,9.999999999994642064e-01
3.997299729972997095e+00,9.999999999994356736e-01
4.097209720972097458e+00,9.999999999994059197e-01
4.197119711971197376e+00,9.999999999993756106e-01
4.297029702970297294e+00,9.999999999993444133e-01
4.396939693969397212e+00,9.999999999993124389e-01
4.496849684968497129e+00,9.999999999992797983e-01
4.596759675967597047e+00,9.999999999992461586e-01
4.696669666966696965e+00,9.999999999992115196e-01
4.796579657965796883e+00,9.999999999991764366e-01
4.896489648964896801e+00,9.999999999991401323e-01
4.996399639963996719e+00,9.999999999991030508e-01
5.096309630963095749e+00,9.999999999990653032e-01
5.196219621962195667e+00,9.999999999990266675e-01
5.296129612961295585e+00,9.999999999989870325e-01
5.396039603960395503e+00,9.999999999989467314e-01
5.495949594959495421e+00,9.999999999989053201e-01
5.595859585958595339e+00,9.999999999988630206e-01
5.695769576957695257e+00,9.999999999988202770e-01
5.795679567956795175e+00,9.999999999987763122e-01
5.895589558955895093e+00,9.999999999987315702e-01
5.995499549954995011e+00,9.999999999986858290e-01
6.095409540954094929e+00,9.999999999986389776e-01
6.195319531953194847e+00,9.999999999985915711e-01
6.295229522952294765e+00,9.999999999985432764e-01
6.395139513951394683e+00,9.999999999984938714e-01
6.495049504950494601e+00,9.999999999984438004e-01
6.594959495949594519e+00,9.999999999983925081e-01
6.694869486948694437e+00,9.999999999983402166e-01
6.794779477947794355e+00,9.999999999982872589e-01
6.894689468946894273e+00,9.999999999982331911e-01
6.994599459945994191e+00,9.999999999981785681e-01
7.094509450945094109e+00,9.999999999981222798e-01
7.194419441944194027e+00,9.999999999980653254e-01
7.294329432943293945e+00,9.999999999980077048e-01
7.394239423942393863e+00,9.999999999979485299e-01
7.494149414941493781e+00,9.999999999978887999e-01
7.594059405940593699e+00,9.999999999978277376e-01
7.693969396939693617e+00,9.999999999977657872e-01
7.793879387938793535e+00,9.999999999977028375e-01
7.893789378937893453e+00,9.999999999976392218e-01
7.993699369936993371e+00,9.999999999975739406e-01
8.093609360936092401e+00,9.999999999975079934e-01
8.193519351935194095e+00,9.999999999974407139e-01
8.293429342934292237e+00,9.999999999973727682e-01
8.393339333933393931e+00,9.999999999973034903e-01
8.493249324932492073e+00,9.999999999972328801e-01
8.593159315931593767e+00,9.999999999971612707e-01
8.693069306930691909e+00,9.999999999970886622e-01
8.792979297929793603e+00,9.999999999970148323e-01
8.892889288928891744e+00,9.999999999969400033e-01
8.992799279927993439e+00,9.999999999968641751e-01
9.092709270927091580e+00,9.999999999967867925e-01
9.192619261926191498e+00,9.999999999967082998e-01
9.292529252925291416e+00,9.999999999966288078e-01
9.392439243924391334e+00,9.999999999965478725e-01
9.492349234923491252e+00,9.999999999964657160e-01
9.592259225922591170e+00,9.999999999963823383e-01
9.692169216921691088e+00,9.999999999962975172e-01
9.792079207920791006e+00,9.999999999962114750e-01
9.891989198919890924e+00,9.999999999961243224e-01
9.991899189918990842e+00,9.999999999960355046e-01
1.009180918091809076e+01,9.999999999959453545e-01
1.019171917191719068e+01,9.999999999958539831e-01
1.029162916291629060e+01,9.999999999957609464e-01
1.039153915391539051e+01,9.999999999956664665e-01
1.049144914491449043e+01,9.999999999955704322e-01
1.059135913591359035e+01,9.999999999954729546e-01
1.069126912691269027e+01,9.999999999953738117e-01
1.079117911791179019e+01,9.999999999952730034e-01
1.089108910891089010e+01,9.999999999951704188e-01
1.099099909990999002e+01,9.999999999950660579e-01
1.109090909090908994e+01,9.999999999949600316e-01
1.119081908190818986e+01,9.999999999948521179e-01
1.129072907290728978e+01,9.999999999947420948e-01
1.139063906390638969e+01,9.999999999946301843e-01
1.149054905490548961e+01,9.999999999945160534e-01
1.159045904590458953e+01,9.999999999944000351e-01
1.169036903690368945e+01,9.999999999942817963e-01
1.179027902790278937e+01,9.999999999941610040e-01
1.189018901890188928e+01,9.999999999940375472e-01
1.199009900990098920e+01,9.999999999939114259e-01
1.209000900090008912e+01,9.999999999937826400e-01
1.218991899189918904e+01,9.999999999936510786e-01
1.228982898289828896e+01,9.999999999935161865e-01
1.238973897389738887e+01,9.999999999933778527e-01
1.248964896489648879e+01,9.999999999932362993e-01
1.258955895589558871e+01,9.999999999930905270e-01
1.268946894689468863e+01,9.999999999929409800e-01
1.278937893789378855e+01,9.999999999927867700e-01
1.288928892889288846e+01,9.999999999926278971e-01
1.298919891989198838e+01,9.999999999924635841e-01
1.308910891089108830e+01,9.999999999922939420e-01
1.318901890189018822e+01,9.999999999921178606e-01
1.328892889288928814e+01,9.999999999919351179e-01
1.338883888388838805e+01,9.999999999917447147e-01
1.348874887488748797e+01,9.999999999915456517e-01
1.358865886588658789e+01,9.999999999913374849e-01
1.368856885688568781e+01,9.999999999911186599e-01
1.378847884788478773e+01,9.999999999908879555e-01
1.388838883888388764e+01,9.999999999906437065e-01
1.398829882988298756e+01,9.999999999903840253e-01
1.408820882088208748e+01,9.999999999901065806e-01
1.418811881188118740e+01,9.999999999898089298e-01
1.428802880288028732e+01,9.999999999894874092e-01
1.438793879387938723e+01,9.999999999891385771e-01
1.448784878487848715e+01,9.999999999887564384e-01
1.458775877587758707e+01,9.999999999883355528e-01
1.468766876687668699e+01,9.999999999878677048e-01
1.478757875787578691e+01,9.999999999873433465e-01
1.488748874887488682e+01,9.999999999867499323e-01
1.498739873987398674e+01,9.999999999860704758e-01
1.508730873087308666e+01,9.999999999852833277e-01
1.518721872187218658e+01,9.999999999843594001e-01
1.528712871287128650e+01,9.999999999832586139e-01
1.538703870387038641e+01,9.999999999819261243e-01
1.548694869486948633e+01,9.999999999802827721e-01
1.558685868586858625e+01,9.999999999782125393e-01
1.568676867686768617e+01,9.999999999755408986e-01
1.578667866786678609e+01,9.999999999719945132e-01
1.588658865886588600e+01,9.999999999671250750e-01
1.598649864986498592e+01,9.999999999601578704e-01
1.608640864086408584e+01,9.999999999496567149e-01
1.618631863186318753e+01,9.999999999327194855e-01
1.628622862286228568e+01,9.999999999027301412e-01
1.638613861386138382e+01,9.999999998417936631e-01
1.648604860486048551e+01,9.999999996864635810e-01
1.658595859585958721e+01,9.999999990610486389e-01
1.668586858685868535e+01,9.999999854082989303e-01
1.678577857785778349e+01,9.999999958116089216e-01
1.688568856885688518e+01,9.999999993422593603e-01
1.698559855985598688e+01,9.999999997349126035e-01
1.708550855085508502e+01,9.999999998527560052e-01
1.718541854185418316e+01,9.999999999033315490e-01
1.728532853285328486e+01,9.999999999295827724e-01
1.738523852385238300e+01,9.999999999449230570e-01
1.748514851485148469e+01,9.999999999546419494e-01
1.758505850585058283e+01,9.999999999611687285e-01
1.768496849684968453e+01,9.999999999657467331e-01
1.778487848784878267e+01,9.999999999690679653e-01
1.788478847884788436e+01,9.999999999715402099e-01
1.798469846984698250e+01,9.999999999734188183e-01
1.808460846084608420e+01,9.999999999748688806e-01
1.818451845184518234e+01,9.999999999760019742e-01
1.828442844284428404e+01,9.999999999768949266e-01
1.838433843384338218e+01,9.999999999776028048e-01
1.848424842484248387e+01,9.999999999781653548e-01
1.858415841584158201e+01,9.999999999786124416e-01
1.868406840684068371e+01,9.999999999789660476e-01
1.878397839783978185e+01,9.999999999792429373e-01
1.888388838883888354e+01,9.999999999794568772e-01
1.898379837983798168e+01,9.999999999796181926e-01
1.908370837083708338e+01,9.999999999797354322e-01
1.918361836183618152e+01,9.999999999798148131e-01
1.928352835283528321e+01,9.999999999798618866e-01
1.938343834383438136e+01,9.999999999798812045e-01
1.948334833483348305e+01,9.999999999798763195e-01
1.958325832583258119e+01,9.999999999798501182e-01
1.968316831683168289e+01,9.999999999798051542e-01
1.978307830783078103e+01,9.999999999797436478e-01
1.988298829882988272e+01,9.999999999796672645e-01
1.998289828982898086e+01,9.999999999795780026e-01
2.008280828082808256e+01,9.999999999794767502e-01
2.018271827182718070e+01,9.999999999793648398e-01
2.028262826282628239e+01,9.999999999792428262e-01
2.038253825382538054e+01,9.999999999791121530e-01
2.048244824482448223e+01,9.999999999789728200e-01
2.058235823582358037e+01,9.999999999788263816e-01
2.068226822682268207e+01,9.999999999786729488e-01
2.078217821782178021e+01,9.999999999785129656e-01
2.088208820882088190e+01,9.999999999783465432e-01
2.098199819981998004e+01,9.999999999781744586e-01
2.108190819081908174e+01,9.999999999779971560e-01
2.118181818181817988e+01,9.999999999778147464e-01
2.128172817281728157e+01,9.999999999776275628e-01
2.138163816381637972e+01,9.999999999774359383e-01
2.148154815481548141e+01,9.999999999772398729e-01
2.158145814581457955e+01,9.999999999770396997e-01
2.168136813681368125e+01,9.999999999768353076e-01
2.178127812781277939e+01,9.999999999766274739e-01
2.188118811881188108e+01,9.999999999764157543e-01
2.198109810981097922e+01,9.999999999762005931e-01
2.208100810081008092e+01,9.999999999759817682e-01
2.218091809180917906e+01,9.999999999757599456e-01
2.228082808280828075e+01,9.999999999755345703e-01
2.238073807380737890e+01,9.999999999753061974e-01
2.248064806480648059e+01,9.999999999750749380e-01
2.258055805580557873e+01,9.999999999748405699e-01
2.268046804680468043e+01,9.999999999746030932e-01
2.278037803780377857e+01,9.999999999743630630e-01
2.288028802880288026e+01,9.999999999741197021e-01
2.298019801980197840e+01,9.999999999738738987e-01
2.308010801080108010e+01,9.999999999736253198e-01
2.318001800180017824e+01,9.999999999733739653e-01
2.327992799279927993e+01,9.999999999731200573e-01
2.337983798379837808e+01,9.999999999728633737e-01
2.347974797479747977e+01,9.999999999726042477e-01
2.357965796579657791e+01,9.999999999723425681e-01
2.367956795679567961e+01,9.999999999720782240e-01
2.377947794779477775e+01,9.999999999718112154e-01
2.387938793879387944e+01,9.999999999715419863e-01
2.397929792979297758e+01,9.999999999712700927e-01
2.407920792079207928e+01,9.999999999709955345e-01
2.417911791179117742e+01,9.999999999707188669e-01
2.427902790279027911e+01,9.999999999704396458e-01
2.437893789378937726e+01,9.999999999701579823e-01
2.447884788478847895e+01,9.999999999698740982e-01
2.457875787578757709e+01,9.999999999695876607e-01
2.467866786678667879e+01,9.999999999692983366e-01
2.477857785778577693e+01,9.999999999690071251e-01
2.487848784878487862e+01,9.999999999687134711e-01
2.497839783978397676e+01,9.999999999684170415e-01
2.507830783078307846e+01,9.999999999681188356e-01
2.517821782178217660e+01,9.999999999678177431e-01
2.527812781278127829e+01,9.999999999675145412e-01
2.537803780378037644e+01,9.999999999672086748e-01
2.547794779477947813e+01,9.999999999669004769e-01
2.557785778577857627e+01,9.999999999665899475e-01
2.567776777677767797e+01,9.999999999662771977e-01
2.577767776777677611e+01,9.999999999659617833e-01
2.587758775877587780e+01,9.999999999656441485e-01
2.597749774977497594e+01,9.999999999653239602e-01
2.607740774077407764e+01,9.999999999650015514e-01
2.617731773177317578e+01,9.999999999646767002e-01
2.627722772277227747e+01,9.999999999643492954e-01
2.637713771377137562e+01,9.999999999640195592e-01
2.647704770477047731e+01,9.999999999636874914e-01
2.657695769576957545e+01,9.999999999633527592e-01
2.667686768676867359e+01,9.999999999630159175e-01
2.677677767776777529e+01,9.999999999626765224e-01
2.687668766876687343e+01,9.999999999623345737e-01
2.697659765976597512e+01,9.999999999619902935e-01
2.707650765076507327e+01,9.999999999616433488e-01
2.717641764176417496e+01,9.999999999612941837e-01
2.727632763276327310e+01,9.999999999609423540e-01
2.737623762376237480e+01,9.999999999605884149e-01
2.747614761476147294e+01,9.999999999602314782e-01
2.757605760576057463e+01,9.999999999598720990e-01
2.767596759675967277e+01,9.999999999595106104e-01
2.777587758775877447e+01,9.999999999591462352e-01
2.787578757875787261e+01,9.999999999587794175e-01
2.797569756975697430e+01,9.999999999584103794e-01
2.807560756075607244e+01,9.999999999580385657e-01
2.817551755175517414e+01,9.999999999576641985e-01
2.827542754275427228e+01,9.999999999572871667e-01
2.837533753375337398e+01,9.999999999569074705e-01
2.847524752475247212e+01,9.999999999565255537e-01
2.857515751575157381e+01,9.999999999561406394e-01
2.867506750675067195e+01,9.999999999557536157e-01
2.877497749774977365e+01,9.999999999553637053e-01
2.887488748874887179e+01,9.999999999549709084e-01
2.897479747974797348e+01,9.999999999545757801e-01
2.907470747074707162e+01,9.999999999541778761e-01
2.917461746174617332e+01,9.999999999537775297e-01
2.927452745274527146e+01,9.999999999533742967e-01
2.937443744374437316e+01,9.999999999529685102e-01
2.947434743474347130e+01,9.999999999525597261e-01
2.957425742574257299e+01,9.999999999521486105e-01
2.967416741674167113e+01,9.999999999517347193e-01
2.977407740774077283e+01,9.999999999513179416e-01
2.987398739873987097e+01,9.999999999508984994e-01
2.997389738973897266e+01,9.999999999504762815e-01
3.007380738073807080e+01,9.999999999500512882e-01
3.017371737173717250e+01,9.999999999496234082e-01
3.027362736273627064e+01,9.999999999491928637e-01
3.037353735373537233e+01,9.999999999487593216e-01
3.047344734473447048e+01,9.999999999483232260e-01
3.057335733573357217e+01,9.999999999478841328e-01
3.067326732673267031e+01,9.999999999474424861e-01
3.077317731773177201e+01,9.999999999469975087e-01
3.087308730873087015e+01,9.999999999465498668e-01
3.097299729972997184e+01,9.999999999460995603e-01
3.107290729072906998e+01,9.999999999456461452e-01
3.117281728172817168e+01,9.999999999451896215e-01
3.127272727272726982e+01,9.999999999447303223e-01
3.137263726372637151e+01,9.999999999442678034e-01
3.147254725472546966e+01,9.999999999438027309e-01
3.157245724572457135e+01,9.999999999433345499e-01
3.167236723672366949e+01,9.999999999428633712e-01
3.177227722772277119e+01,9.999999999423890840e-01
3.187218721872186933e+01,9.999999999419117991e-01
3.197209720972097102e+01,9.999999999414316276e-01
3.207200720072006561e+01,9.999999999409482365e-01
3.217191719171917441e+01,9.999999999404618478e-01
3.227182718271826900e+01,9.999999999399722395e-01
3.237173717371737069e+01,9.999999999394795225e-01
3.247164716471647239e+01,9.999999999389841410e-01
3.257155715571556698e+01,9.999999999384850957e-01
3.267146714671466867e+01,9.999999999379831639e-01
3.277137713771377037e+01,9.999999999374779014e-01
3.287128712871286496e+01,9.999999999369694192e-01
3.297119711971197376e+01,9.999999999364582726e-01
3.307110711071106834e+01,9.999999999359433511e-01
3.317101710171017004e+01,9.999999999354252100e-01
3.327092709270927173e+01,9.999999999349039603e-01
3.337083708370836632e+01,9.999999999343793800e-01
3.347074707470746802e+01,9.999999999338515799e-01
3.357065706570656971e+01,9.999999999333204492e-01
3.367056705670567140e+01,9.999999999327862099e-01
3.377047704770476599e+01,9.999999999322481958e-01
3.387038703870386769e+01,9.999999999317068511e-01
3.397029702970296938e+01,9.999999999311623977e-01
3.407020702070207108e+01,9.999999999306145027e-01
3.417011701170116567e+01,9.999999999300631659e-01
3.427002700270026736e+01,9.999999999295086095e-01
3.436993699369936905e+01,9.999999999289502783e-01
3.446984698469847075e+01,9.999999999283886165e-01
3.456975697569756534e+01,9.999999999278230689e-01
3.466966696669666703e+01,9.999999999272545237e-01
3.476957695769576873e+01,9.999999999266824258e-01
3.486948694869487042e+01,9.999999999261069972e-01
3.496939693969396501e+01,9.999999999255276828e-01
3.506930693069306670e+01,9.999999999249447047e-01
3.516921692169216840e+01,9.999999999243580628e-01
3.526912691269127009e+01,9.999999999237677573e-01
3.536903690369036468e+01,9.999999999231742320e-01
3.546894689468946638e+01,9.999999999225769320e-01
3.556885688568856807e+01,9.999999999219758573e-01
3.566876687668766976e+01,9.999999999213710078e-01
3.576867686768676435e+01,9.999999999207623835e-01
3.586858685868586605e+01,9.999999999201504286e-01
3.596849684968496774e+01,9.999999999195342548e-01
3.606840684068406944e+01,9.999999999189144173e-01
3.616831683168316403e+01,9.999999999182911381e-01
3.626822682268226572e+01,9.999999999176634180e-01
3.636813681368136741e+01,9.999999999170321452e-01
3.646804680468046911e+01,9.999999999163970976e-01
3.656795679567956370e+01,9.999999999157581643e-01
3.666786678667866539e+01,9.999999999151151231e-01
3.676777677767776709e+01,9.999999999144685292e-01
3.686768676867686878e+01,9.999999999138176054e-01
3.696759675967596337e+01,9.999999999131626849e-01
3.706750675067506506e+01,9.999999999125038785e-01
3.716741674167416676e+01,9.999999999118409644e-01
3.726732673267326845e+01,9.999999999111743865e-01
3.736723672367236304e+01,9.999999999105035897e-01
3.746714671467146474e+01,9.999999999098283521e-01
3.756705670567056643e+01,9.999999999091494507e-01
3.766696669666966812e+01,9.999999999084662194e-01
3.776687668766876271e+01,9.999999999077784363e-01
3.786678667866786441e+01,9.999999999070871004e-01
3.796669666966696610e+01,9.999999999063911016e-01
3.806660666066606780e+01,9.999999999056913280e-01
3.816651665166516239e+01,9.999999999049870025e-01
3.826642664266426408e+01,9.999999999042782362e-01
3.836633663366336577e+01,9.999999999035656950e-01
3.846624662466246747e+01,9.999999999028482689e-01
3.856615661566156206e+01,9.999999999021265129e-01
3.866606660666066375e+01,9.999999999014008711e-01
3.876597659765976545e+01,9.999999999006705664e-01
3.886588658865886714e+01,9.999999998999358208e-01
3.896579657965796173e+01,9.999999998991966343e-01
3.906570657065706342e+01,9.999999998984527849e-01
3.916561656165616512e+01,9.999999998977048277e-01
3.926552655265526681e+01,9.999999998969519854e-01
3.936543654365436140e+01,9.999999998961948133e-01
3.946534653465346310e+01,9.999999998954328673e-01
3.956525652565256479e+01,9.999999998946662583e-01
3.966516651665165938e+01,9.999999998938949863e-01
3.976507650765076107e+01,9.999999998931192735e-01
3.986498649864986277e+01,9.999999998923387867e-01
3.996489648964896446e+01,9.999999998915538590e-01
4.006480648064805905e+01,9.999999998907638243e-01
4.016471647164716074e+01,9.999999998899691267e-01
4.026462646264626244e+01,9.999999998891697661e-01
4.036453645364536413e+01,9.999999998883654095e-01
4.046444644464445872e+01,9.999999998875559459e-01
4.056435643564356042e+01,9.999999998867422635e-01
4.066426642664266211e+01,9.999999998859230299e-01
4.076417641764176381e+01,9.999999998850990224e-01
