# wavelength (nm), relative flux
1.000000000000000000e+00,9.999999999999277245e-01
1.099909990999099918e+00,9.999999999999119593e-01
1.199819981998199836e+00,9.999999999998953060e-01
1.299729972997299754e+00,9.999999999998766542e-01
1.399639963996399672e+00,9.999999999998566702e-01
1.499549954995499590e+00,9.999999999998351319e-01
1.599459945994599508e+00,9.999999999998119282e-01
1.699369936993699426e+00,9.999999999997871702e-01
1.799279927992799344e+00,9.999999999997610800e-01
1.899189918991899262e+00,9.999999999997329914e-01
1.999099909990999180e+00,9.999999999997039035e-01
2.099009900990099098e+00,9.999999999996725952e-01
2.198919891989199016e+00,9.999999999996400657e-01
2.298829882988298934e+00,9.999999999996056488e-01
2.398739873987398852e+00,9.999999999995696776e-01
2.498649864986498770e+00,9.999999999995322630e-01
2.598559855985598688e+00,9.999999999994928501e-01
2.698469846984698606e+00,9.999999999994517719e-01
2.798379837983798524e+00,9.999999999994093614e-01
2.898289828982898442e+00,9.999999999993649524e-01
2.998199819981998360e+00,9.999999999993191002e-01
3.098109810981097834e+00,9.999999999992710276e-01
3.198019801980197752e+00,9.999999999992216226e-01
3.297929792979297670e+00,9.999999999991699973e-01
3.397839783978397588e+00,9.999999999991169286e-01
3.497749774977497506e+00,9.999999999990618615e-01
3.597659765976597424e+00,9.999999999990051291e-01
3.697569756975697342e+00,9.999999999989467314e-01
3.797479747974797260e+00,9.999999999988864463e-01
3.897389738973897177e+00,9.999999999988241628e-01
3.997299729972997095e+00,9.999999999987601029e-01
4.097209720972097458e+00,9.999999999986942667e-01
4.197119711971197376e+00,9.999999999986259880e-01
4.297029702970297294e+00,9.999999999985565990e-01
4.396939693969397212e+00,9.999999999984846566e-01
4.496849684968497129e+00,9.999999999984109378e-01
4.596759675967597047e+00,9.999999999983353316e-01
4.696669666966696965e+00,9.999999999982573939e-01
4.796579657965796883e+00,9.999999999981776799e-01
4.896489648964896801e+00,9.999999999980958565e-01
4.996399639963996719e+00,9.999999999980122567e-01
5.096309630963095749e+00,9.999999999979264365e-01
5.196219621962195667e+00,9.999999999978380627e-01
5.296129612961295585e+00,9.999999999977481346e-01
5.396039603960395503e+00,9.999999999976557641e-01
5.495949594959495421e+00,9.999999999975611731e-01
5.595859585958595339e+00,9.999999999974646947e-01
5.695769576957695257e+00,9.999999999973655518e-01
5.795679567956795175e+00,9.999999999972641884e-01
5.895589558955895093e+00,9.999999999971610487e-01
5.995499549954995011e+00,9.999999999970551334e-01
6.095409540954094929e+00,9.999999999969469977e-01
6.195319531953194847e+00,9.999999999968365305e-01
6.295229522952294765e+00,9.999999999967232878e-01
6.395139513951394683e+00,9.999999999966080466e-01
6.495049504950494601e+00,9.999999999964900299e-01
6.594959495949594519e+00,9.999999999963699038e-01
6.694869486948694437e+00,9.999999999962466690e-01
6.794779477947794355e+00,9.999999999961207697e-01
6.894689468946894273e+00,9.999999999959927610e-01
6.994599459945994191e+00,9.999999999958618657e-01
7.094509450945094109e+00,9.999999999957278618e-01
7.194419441944194027e+00,9.999999999955915264e-01
7.294329432943293945e+00,9.999999999954520824e-01
7.394239423942393863e+00,9.999999999953101959e-01
7.494149414941493781e+00,9.999999999951648677e-01
7.594059405940593699e+00,9.999999999950166529e-01
7.693969396939693617e+00,9.999999999948656626e-01
7.793879387938793535e+00,9.999999999947111196e-01
7.893789378937893453e+00,9.999999999945539120e-01
7.993699369936993371e+00,9.999999999943924855e-01
8.093609360936092401e+00,9.999999999942283946e-01
8.193519351935194095e+00,9.999999999940610840e-01
8.293429342934292237e+00,9.999999999938901096e-01
8.393339333933393931e+00,9.999999999937155826e-01
8.493249324932492073e+00,9.999999999935370587e-01
8.593159315931593767e+00,9.999999999933553152e-01
8.693069306930691909e+00,9.999999999931691308e-01
8.792979297929793603e+00,9.999999999929792827e-01
8.892889288928891744e+00,9.999999999927852157e-01
8.992799279927993439e+00,9.999999999925870409e-01
9.092709270927091580e+00,9.999999999923845362e-01
9.192619261926191498e+00,9.999999999921772575e-01
9.292529252925291416e+00,9.999999999919657601e-01
9.392439243924391334e+00,9.999999999917493776e-01
9.492349234923491252e+00,9.999999999915283322e-01
9.592259225922591170e+00,9.999999999913017357e-01
9.692169216921691088e+00,9.999999999910699211e-01
9.792079207920791006e+00,9.999999999908326664e-01
9.891989198919890924e+00,9.999999999905896386e-01
9.991899189918990842e+00,9.999999999903407266e-01
1.009180918091809076e+01,9.999999999900859304e-01
1.019171917191719068e+01,9.999999999898241398e-01
1.029162916291629060e+01,9.999999999895556879e-01
1.039153915391539051e+01,9.999999999892803526e-01
1.049144914491449043e+01,9.999999999889976898e-01
1.059135913591359035e+01,9.999999999887072555e-01
1.069126912691269027e+01,9.999999999884084945e-01
1.079117911791179019e+01,9.999999999881015178e-01
1.089108910891089010e+01,9.999999999877849932e-01
1.099099909990999002e+01,9.999999999874589207e-01
1.109090909090908994e+01,9.999999999871229672e-01
1.119081908190818986e+01,9.999999999867764666e-01
1.129072907290728978e+01,9.999999999864184197e-01
1.139063906390638969e+01,9.999999999860481603e-01
1.149054905490548961e+01,9.999999999856652444e-01
1.159045904590458953e+01,9.999999999852686727e-01
1.169036903690368945e+01,9.999999999848571131e-01
1.179027902790278937e+01,9.999999999844300103e-01
1.189018901890188928e+01,9.999999999839860321e-01
1.199009900990098920e+01,9.999999999835239572e-01
1.209000900090008912e+01,9.999999999830423425e-01
1.218991899189918904e+01,9.999999999825388564e-01
1.228982898289828896e+01,9.999999999820131658e-01
1.238973897389738887e+01,9.999999999814620510e-01
1.248964896489648879e+01,9.999999999808836249e-01
1.258955895589558871e+01,9.999999999802754447e-01
1.268946894689468863e+01,9.999999999796347350e-01
1.278937893789378855e+01,9.999999999789581651e-01
1.288928892889288846e+01,9.999999999782422933e-01
1.298919891989198838e+01,9.999999999774824566e-01
1.308910891089108830e+01,9.999999999766747694e-01
1.318901890189018822e+01,9.999999999758125702e-01
1.328892889288928814e+01,9.999999999748905299e-01
1.338883888388838805e+01,9.999999999739014322e-01
1.348874887488748797e+01,9.999999999728365063e-01
1.358865886588658789e+01,9.999999999716859822e-01
1.368856885688568781e+01,9.999999999704384246e-01
1.378847884788478773e+01,9.999999999690811769e-01
1.388838883888388764e+01,9.999999999675968088e-01
1.398829882988298756e+01,9.999999999659675565e-01
1.408820882088208748e+01,9.999999999641702164e-01
1.418811881188118740e+01,9.999999999621778102e-01
1.428802880288028732e+01,9.999999999599568090e-01
1.438793879387938723e+01,9.999999999574670229e-01
1.448784878487848715e+01,9.999999999546582696e-01
1.458775877587758707e+01,9.999999999514690430e-01
1.468766876687668699e+01,9.999999999478205170e-01
1.478757875787578691e+01,9.999999999436145481e-01
1.488748874887488682e+01,9.999999999387237937e-01
1.498739873987398674e+01,9.999999999329838296e-01
1.508730873087308666e+01,9.999999999261761641e-01
1.518721872187218658e+01,9.999999999180096966e-01
1.528712871287128650e+01,9.999999999080859681e-01
1.538703870387038641e+01,9.999999998958511993e-01
1.548694869486948633e+01,9.999999998805151336e-01
1.558685868586858625e+01,9.999999998609219176e-01
1.568676867686768617e+01,9.999999998353259478e-01
1.578667866786678609e+01,9.999999998009916347e-01
1.588658865886588600e+01,9.999999997534380070e-01
1.598649864986498592e+01,9.999999996849161521e-01
1.608640864086408584e+01,9.999999995810793241e-01
1.618631863186318753e+01,9.999999994129123992e-01
1.628622862286228568e+01,9.999999991143054823e-01
1.638613861386138382e+01,9.999999985065081143e-01
1.648604860486048551e+01,9.999999969562950453e-01
1.658595859585958721e+01,9.999999907243269925e-01
1.668586858685868535e+01,9.999998600130153292e-01
1.678577857785778349e+01,9.999999586856412881e-01
1.688568856885688518e+01,9.999999935279866303e-01
1.698559855985598688e+01,9.999999974461213359e-01
1.708550855085508502e+01,9.999999986245486916e-01
1.718541854185418316e+01,9.999999991312523706e-01
1.728532853285328486e+01,9.999999993949240107e-01
1.738523852385238300e+01,9.999999995495569838e-01
1.748514851485148469e+01,9.999999996480052333e-01
1.758505850585058283e+01,9.999999997145501140e-01
1.768496849684968453e+01,9.999999997616250136e-01
1.778487848784878267e+01,9.999999997961362963e-01
1.788478847884788436e+01,9.999999998221729136e-01
1.798469846984698250e+01,9.999999998422807179e-01
1.808460846084608420e+01,9.999999998581137195e-01
1.818451845184518234e+01,9.999999998707850279e-01
1.828442844284428404e+01,9.999999998810654711e-01
1.838433843384338218e+01,9.999999998895040543e-01
1.848424842484248387e+01,9.999999998964987924e-01
1.858415841584158201e+01,9.999999999023452268e-01
1.868406840684068371e+01,9.999999999072664014e-01
1.878397839783978185e+01,9.999999999114330684e-01
1.888388838883888354e+01,9.999999999149777885e-01
1.898379837983798168e+01,9.999999999180051447e-01
1.908370837083708338e+01,9.999999999205974044e-01
1.918361836183618152e+01,9.999999999228217362e-01
1.928352835283528321e+01,9.999999999247315419e-01
1.938343834383438136e+01,9.999999999263716743e-01
1.948334833483348305e+01,9.999999999277778828e-01
1.958325832583258119e+01,9.999999999289805874e-01
1.968316831683168289e+01,9.999999999300054343e-01
1.978307830783078103e+01,9.999999999308729626e-01
1.988298829882988272e+01,9.999999999316020460e-01
1.998289828982898086e+01,9.999999999322070066e-01
2.008280828082808256e+01,9.999999999327016109e-01
2.018271827182718070e+01,9.999999999330966283e-01
2.028262826282628239e+01,9.999999999334020506e-01
2.038253825382538054e+01,9.999999999336263157e-01
2.048244824482448223e+01,9.999999999337761958e-01
2.058235823582358037e+01,9.999999999338582413e-01
2.068226822682268207e+01,9.999999999338783363e-01
2.078217821782178021e+01,9.999999999338406997e-01
2.088208820882088190e+01,9.999999999337502166e-01
2.098199819981998004e+01,9.999999999336107726e-01
2.108190819081908174e+01,9.999999999334246992e-01
2.118181818181817988e+01,9.999999999331958822e-01
2.128172817281728157e+01,9.999999999329263201e-01
2.138163816381637972e+01,9.999999999326186773e-01
2.148154815481548141e+01,9.999999999322749522e-01
2.158145814581457955e+01,9.999999999318972543e-01
2.168136813681368125e+01,9.999999999314865828e-01
2.178127812781277939e+01,9.999999999310450471e-01
2.188118811881188108e+01,9.999999999305735354e-01
2.198109810981097922e+01,9.999999999300732689e-01
2.208100810081008092e+01,9.999999999295449138e-01
2.218091809180917906e+01,9.999999999289898023e-01
2.228082808280828075e+01,9.999999999284089336e-01
2.238073807380737890e+01,9.999999999278027518e-01
2.248064806480648059e+01,9.999999999271712570e-01
2.258055805580557873e+01,9.999999999265163364e-01
2.268046804680468043e+01,9.999999999258372130e-01
2.278037803780377857e+01,9.999999999251353300e-01
2.288028802880288026e+01,9.999999999244096882e-01
2.298019801980197840e+01,9.999999999236619530e-01
2.308010801080108010e+01,9.999999999228917913e-01
2.318001800180017824e+01,9.999999999220995361e-01
2.327992799279927993e+01,9.999999999212846324e-01
2.337983798379837808e+01,9.999999999204477463e-01
2.347974797479747977e+01,9.999999999195893219e-01
2.357965796579657791e+01,9.999999999187090260e-01
2.367956795679567961e+01,9.999999999178064147e-01
2.377947794779477775e+01,9.999999999168820430e-01
2.387938793879387944e+01,9.999999999159358000e-01
2.397929792979297758e+01,9.999999999149667973e-01
2.407920792079207928e+01,9.999999999139762563e-01
2.417911791179117742e+01,9.999999999129628447e-01
2.427902790279027911e+01,9.999999999119271177e-01
2.437893789378937726e+01,9.999999999108679649e-01
2.447884788478847895e+01,9.999999999097864967e-01
2.457875787578757709e+01,9.999999999086812696e-01
2.467866786678667879e+01,9.999999999075522839e-01
2.477857785778577693e+01,9.999999999063997613e-01
2.487848784878487862e+01,9.999999999052228139e-01
2.497839783978397676e+01,9.999999999040207754e-01
2.507830783078307846e+01,9.999999999027939790e-01
2.517821782178217660e+01,9.999999999015418695e-01
2.527812781278127829e+01,9.999999999002632256e-01
2.537803780378037644e+01,9.999999998989582695e-01
2.547794779477947813e+01,9.999999998976267790e-01
2.557785778577857627e+01,9.999999998962677550e-01
2.567776777677767797e+01,9.999999998948806423e-01
2.577767776777677611e+01,9.999999998934646639e-01
2.587758775877587780e+01,9.999999998920194866e-01
2.597749774977497594e+01,9.999999998905445553e-01
2.607740774077407764e+01,9.999999998890393149e-01
2.617731773177317578e+01,9.999999998875026552e-01
2.627722772277227747e+01,9.999999998859343542e-01
2.637713771377137562e+01,9.999999998843327464e-01
2.647704770477047731e+01,9.999999998826980541e-01
2.657695769576957545e+01,9.999999998810287227e-01
2.667686768676867359e+01,9.999999998793243083e-01
2.677677767776777529e+01,9.999999998775837007e-01
2.687668766876687343e+01,9.999999998758060116e-01
2.697659765976597512e+01,9.999999998739901308e-01
2.707650765076507327e+01,9.999999998721356143e-01
2.717641764176417496e+01,9.999999998702404636e-01
2.727632763276327310e+01,9.999999998683041236e-01
2.737623762376237480e+01,9.999999998663252621e-01
2.747614761476147294e+01,9.999999998643028798e-01
2.757605760576057463e+01,9.999999998622355335e-01
2.767596759675967277e+01,9.999999998601220019e-01
2.777587758775877447e+01,9.999999998579607308e-01
2.787578757875787261e+01,9.999999998557504988e-01
2.797569756975697430e+01,9.999999998534894186e-01
2.807560756075607244e+01,9.999999998511766020e-01
2.817551755175517414e+01,9.999999998488098285e-01
2.827542754275427228e+01,9.999999998463877660e-01
2.837533753375337398e+01,9.999999998439084159e-01
2.847524752475247212e+01,9.999999998413696689e-01
2.857515751575157381e+01,9.999999998387704148e-01
2.867506750675067195e+01,9.999999998361082110e-01
2.877497749774977365e+01,9.999999998333803930e-01
2.887488748874887179e+01,9.999999998305858506e-01
2.897479747974797348e+01,9.999999998277211422e-01
2.907470747074707162e+01,9.999999998247848243e-01
2.917461746174617332e+01,9.999999998217737884e-01
2.927452745274527146e+01,9.999999998186857031e-01
2.937443744374437316e+01,9.999999998155179037e-01
2.947434743474347130e+01,9.999999998122669487e-01
2.957425742574257299e+01,9.999999998089301734e-01
2.967416741674167113e+01,9.999999998055045802e-01
2.977407740774077283e+01,9.999999998019867276e-01
2.987398739873987097e+01,9.999999997983728406e-01
2.997389738973897266e+01,9.999999997946600327e-01
3.007380738073807080e+01,9.999999997908435301e-01
3.017371737173717250e+01,9.999999997869202240e-01
3.027362736273627064e+01,9.999999997828852294e-01
3.037353735373537233e+01,9.999999997787341055e-01
3.047344734473447048e+01,9.999999997744628555e-01
3.057335733573357217e+01,9.999999997700654841e-01
3.067326732673267031e+01,9.999999997655381057e-01
3.077317731773177201e+01,9.999999997608745028e-01
3.087308730873087015e+01,9.999999997560692355e-01
3.097299729972997184e+01,9.999999997511158645e-01
3.107290729072906998e+01,9.999999997460089496e-01
3.117281728172817168e+01,9.999999997407407193e-01
3.127272727272726982e+01,9.999999997353049563e-01
3.137263726372637151e+01,9.999999997296935561e-01
3.147254725472546966e+01,9.999999997238989691e-01
3.157245724572457135e+01,9.999999997179129796e-01
3.167236723672366949e+01,9.999999997117263728e-01
3.177227722772277119e+01,9.999999997053301559e-01
3.187218721872186933e+01,9.999999996987142259e-01
3.197209720972097102e+01,9.999999996918684797e-01
3.207200720072006561e+01,9.999999996847809269e-01
3.217191719171917441e+01,9.999999996774410205e-01
3.227182718271826900e+01,9.999999996698351046e-01
3.237173717371737069e+01,9.999999996619508558e-01
3.247164716471647239e+01,9.999999996537730640e-01
3.257155715571556698e+01,9.999999996452875184e-01
3.267146714671466867e+01,9.999999996364777877e-01
3.277137713771377037e+01,9.999999996273266634e-01
3.287128712871286496e+01,9.999999996178162709e-01
3.297119711971197376e+01,9.999999996079268483e-01
3.307110711071106834e+01,9.999999995976379674e-01
3.317101710171017004e+01,9.999999995869266467e-01
3.327092709270927173e+01,9.999999995757696825e-01
3.337083708370836632e+01,9.999999995641414285e-01
3.347074707470746802e+01,9.999999995520144624e-01
3.357065706570656971e+01,9.999999995393593633e-01
3.367056705670567140e+01,9.999999995261447117e-01
3.377047704770476599e+01,9.999999995123362018e-01
3.387038703870386769e+01,9.999999994978979734e-01
3.397029702970296938e+01,9.999999994827898364e-01
3.407020702070207108e+01,9.999999994669704906e-01
3.417011701170116567e+01,9.999999994503923073e-01
3.427002700270026736e+01,9.999999994330073250e-01
3.436993699369936905e+01,9.999999994147610316e-01
3.446984698469847075e+01,9.999999993955950295e-01
3.456975697569756534e+01,9.999999993754464800e-01
3.466966696669666703e+01,9.999999993542465493e-01
3.476957695769576873e+01,9.999999993319207414e-01
3.486948694869487042e+01,9.999999993083870109e-01
3.496939693969396501e+01,9.999999992835563178e-01
3.506930693069306670e+01,9.999999992573322949e-01
3.516921692169216840e+01,9.999999992296074725e-01
3.526912691269127009e+01,9.999999992002652771e-01
3.536903690369036468e+01,9.999999991691779222e-01
3.546894689468946638e+01,9.999999991362038543e-01
3.556885688568856807e+01,9.999999991011869760e-01
3.566876687668766976e+01,9.999999990639557579e-01
3.576867686768676435e+01,9.999999990243202408e-01
3.586858685868586605e+01,9.999999989820684831e-01
3.596849684968496774e+01,9.999999989369671161e-01
3.606840684068406944e+01,9.999999988887536828e-01
3.616831683168316403e+01,9.999999988371371940e-01
3.626822682268226572e+01,9.999999987817909108e-01
3.636813681368136741e+01,9.999999987223484599e-01
3.646804680468046911e+01,9.999999986583982814e-01
3.656795679567956370e+01,9.999999985894747478e-01
3.666786678667866539e+01,9.999999985150528348e-01
3.676777677767776709e+01,9.999999984345349091e-01
3.686768676867686878e+01,9.999999983472412923e-01
3.696759675967596337e+01,9.999999982523960496e-01
3.706750675067506506e+01,9.999999981491086709e-01
3.716741674167416676e+01,9.999999980363547536e-01
3.726732673267326845e+01,9.999999979129505778e-01
3.736723672367236304e+01,9.999999977775226867e-01
3.746714671467146474e+01,9.999999976284699166e-01
3.756705670567056643e+01,9.999999974639173228e-01
3.766696669666966812e+01,9.999999972816580041e-01
3.776687668766876271e+01,9.999999970790793835e-01
3.786678667866786441e+01,9.999999968530727257e-01
3.796669666966696610e+01,9.999999965999125662e-01
3.806660666066606780e+01,9.999999963151082749e-01
3.816651665166516239e+01,9.999999959932049931e-01
3.826642664266426408e+01,9.999999956275263946e-01
3.836633663366336577e+01,9.999999952098304057e-01
3.846624662466246747e+01,9.999999947298503500e-01
3.856615661566156206e+01,9.999999941746670062e-01
3.866606660666066375e+01,9.999999935278444108e-01
3.876597659765976545e+01,9.999999927682187151e-01
3.886588658865886714e+01,9.999999918681710120e-01
3.896579657965796173e+01,9.999999907911152341e-01
3.906570657065706342e+01,9.999999894877730222e-01
3.916561656165616512e+01,9.999999878905113659e-01
3.926552655265526681e+01,9.999999859044933492e-01
3.936543654365436140e+01,9.999999833934413163e-01
3.946534653465346310e+01,9.999999801558784318e-01
3.956525652565256479e+01,9.999999758838439279e-01
3.966516651665165938e+01,9.999999700875737974e-01
3.976507650765076107e+01,9.999999619498883829e-01
3.986498649864986277e+01,9.999999500239732386e-01
3.996489648964896446e+01,9.999999315478016459e-01
4.006480648064805905e+01,9.999999006992055239e-01
4.016471647164716074e+01,9.999998434053956053e-01
4.026462646264626244e+01,9.999997179885511400e-01
4.036453645364536413e+01,9.999993509266604796e-01
4.046444644464445872e+01,9.999972183377325852e-01
4.056435643564356042e+01,6.396373111046540494e-01
4.066426642664266211e+01,9.999976497995838320e-01
4.076417641764176381e+01,9.999993935159215974e-01
