# wavelength (nm), relative flux
1.000000000000000000e+00,9.999999999998473443e-01
1.099909990999099918e+00,9.999999999998153699e-01
1.199819981998199836e+00,9.999999999997799538e-01
1.299729972997299754e+00,9.999999999997415401e-01
1.399639963996399672e+00,9.999999999996997957e-01
1.499549954995499590e+00,9.999999999996549427e-01
1.599459945994599508e+00,9.999999999996066480e-01
1.699369936993699426e+00,9.999999999995553557e-01
1.799279927992799344e+00,9.999999999995008437e-01
1.899189918991899262e+00,9.999999999994431121e-01
1.999099909990999180e+00,9.999999999993817168e-01
2.099009900990099098e+00,9.999999999993175459e-01
2.198919891989199016e+00,9.999999999992499333e-01
2.298829882988298934e+00,9.999999999991787680e-01
2.398739873987398852e+00,9.999999999991048272e-01
2.498649864986498770e+00,9.999999999990268895e-01
2.598559855985598688e+00,9.999999999989459543e-01
2.698469846984698606e+00,9.999999999988616883e-01
2.798379837983798524e+00,9.999999999987740917e-01
2.898289828982898442e+00,9.999999999986832755e-01
2.998199819981998360e+00,9.999999999985884624e-01
3.098109810981097834e+00,9.999999999984906518e-01
3.198019801980197752e+00,9.999999999983893995e-01
3.297929792979297670e+00,9.999999999982842613e-01
3.397839783978397588e+00,9.999999999981762366e-01
3.497749774977497506e+00,9.999999999980644372e-01
3.597659765976597424e+00,9.999999999979490850e-01
3.697569756975697342e+00,9.999999999978298471e-01
3.797479747974797260e+00,9.999999999977078335e-01
3.897389738973897177e+00,9.999999999975820453e-01
3.997299729972997095e+00,9.999999999974527043e-01
4.097209720972097458e+00,9.999999999973194775e-01
4.197119711971197376e+00,9.999999999971830311e-01
4.297029702970297294e+00,9.999999999970429210e-01
4.396939693969397212e+00,9.999999999968989250e-01
4.496849684968497129e+00,9.999999999967513764e-01
4.596759675967597047e+00,9.999999999966006081e-01
4.696669666966696965e+00,9.999999999964455100e-01
4.796579657965796883e+00,9.999999999962868591e-01
4.896489648964896801e+00,9.999999999961245445e-01
4.996399639963996719e+00,9.999999999959590102e-01
5.096309630963095749e+00,9.999999999957892571e-01
5.196219621962195667e+00,9.999999999956152852e-01
5.296129612961295585e+00,9.999999999954382046e-01
5.396039603960395503e+00,9.999999999952572383e-01
5.495949594959495421e+00,9.999999999950720531e-01
5.595859585958595339e+00,9.999999999948839813e-01
5.695769576957695257e+00,9.999999999946912466e-01
5.795679567956795175e+00,9.999999999944949591e-01
5.895589558955895093e+00,9.999999999942946749e-01
5.995499549954995011e+00,9.999999999940902828e-01
6.095409540954094929e+00,9.999999999938825601e-01
6.195319531953194847e+00,9.999999999936707296e-01
6.295229522952294765e+00,9.999999999934542361e-01
6.395139513951394683e+00,9.999999999932344119e-01
6.495049504950494601e+00,9.999999999930105909e-01
6.594959495949594519e+00,9.999999999927824401e-01
6.694869486948694437e+00,9.999999999925504035e-01
6.794779477947794355e+00,9.999999999923144811e-01
6.894689468946894273e+00,9.999999999920745619e-01
6.994599459945994191e+00,9.999999999918302018e-01
7.094509450945094109e+00,9.999999999915821780e-01
7.194419441944194027e+00,9.999999999913293802e-01
7.294329432943293945e+00,9.999999999910731407e-01
7.394239423942393863e+00,9.999999999908126824e-01
7.494149414941493781e+00,9.999999999905475612e-01
7.594059405940593699e+00,9.999999999902785541e-01
7.693969396939693617e+00,9.999999999900054393e-01
7.793879387938793535e+00,9.999999999897281056e-01
7.893789378937893453e+00,9.999999999894463310e-01
7.993699369936993371e+00,9.999999999891601155e-01
8.093609360936092401e+00,9.999999999888699032e-01
8.193519351935194095e+00,9.999999999885751389e-01
8.293429342934292237e+00,9.999999999882763779e-01
8.393339333933393931e+00,9.999999999879731760e-01
8.493249324932492073e+00,9.999999999876652002e-01
8.593159315931593767e+00,9.999999999873533385e-01
8.693069306930691909e+00,9.999999999870368139e-01
8.792979297929793603e+00,9.999999999867160705e-01
8.892889288928891744e+00,9.999999999863905531e-01
8.992799279927993439e+00,9.999999999860610389e-01
9.092709270927091580e+00,9.999999999857265287e-01
9.192619261926191498e+00,9.999999999853880217e-01
9.292529252925291416e+00,9.999999999850446297e-01
9.392439243924391334e+00,9.999999999846964638e-01
9.492349234923491252e+00,9.999999999843443010e-01
9.592259225922591170e+00,9.999999999839870313e-01
9.692169216921691088e+00,9.999999999836253206e-01
9.792079207920791006e+00,9.999999999832588360e-01
9.891989198919890924e+00,9.999999999828880215e-01
9.991899189918990842e+00,9.999999999825125441e-01
1.009180918091809076e+01,9.999999999821319596e-01
1.019171917191719068e+01,9.999999999817468233e-01
1.029162916291629060e+01,9.999999999813570239e-01
1.039153915391539051e+01,9.999999999809626727e-01
1.049144914491449043e+01,9.999999999805628814e-01
1.059135913591359035e+01,9.999999999801588713e-01
1.069126912691269027e+01,9.999999999797496431e-01
1.079117911791179019e+01,9.999999999793358629e-01
1.089108910891089010e+01,9.999999999789170868e-01
1.099099909990999002e+01,9.999999999784933147e-01
1.109090909090908994e+01,9.999999999780647686e-01
1.119081908190818986e+01,9.999999999776311155e-01
1.129072907290728978e+01,9.999999999771926884e-01
1.139063906390638969e+01,9.999999999767492653e-01
1.149054905490548961e+01,9.999999999763006242e-01
1.159045904590458953e+01,9.999999999758469871e-01
1.169036903690368945e+01,9.999999999753880209e-01
1.179027902790278937e+01,9.999999999749242807e-01
1.189018901890188928e+01,9.999999999744558776e-01
1.199009900990098920e+01,9.999999999739814793e-01
1.209000900090008912e+01,9.999999999735023071e-01
1.218991899189918904e+01,9.999999999730178057e-01
1.228982898289828896e+01,9.999999999725286415e-01
1.238973897389738887e+01,9.999999999720338151e-01
1.248964896489648879e+01,9.999999999715335486e-01
1.258955895589558871e+01,9.999999999710282861e-01
1.268946894689468863e+01,9.999999999705175835e-01
1.278937893789378855e+01,9.999999999700014408e-01
1.288928892889288846e+01,9.999999999694799691e-01
1.298919891989198838e+01,9.999999999689533903e-01
1.308910891089108830e+01,9.999999999684213714e-01
1.318901890189018822e+01,9.999999999678835794e-01
1.328892889288928814e+01,9.999999999673406803e-01
1.338883888388838805e+01,9.999999999667917860e-01
1.348874887488748797e+01,9.999999999662376737e-01
1.358865886588658789e+01,9.999999999656780103e-01
1.368856885688568781e+01,9.999999999651129068e-01
1.378847884788478773e+01,9.999999999645425852e-01
1.388838883888388764e+01,9.999999999639660464e-01
1.398829882988298756e+01,9.999999999633838454e-01
1.408820882088208748e+01,9.999999999627962044e-01
1.418811881188118740e+01,9.999999999622027902e-01
1.428802880288028732e+01,9.999999999616033808e-01
1.438793879387938723e+01,9.999999999609986423e-01
1.448784878487848715e+01,9.999999999603879086e-01
1.458775877587758707e+01,9.999999999597712907e-01
1.468766876687668699e+01,9.999999999591491218e-01
1.478757875787578691e+01,9.999999999585208466e-01
1.488748874887488682e+01,9.999999999578866872e-01
1.498739873987398674e+01,9.999999999572465326e-01
1.508730873087308666e+01,9.999999999566009379e-01
1.518721872187218658e+01,9.999999999559486819e-01
1.528712871287128650e+01,9.999999999552907637e-01
1.538703870387038641e+01,9.999999999546270724e-01
1.548694869486948633e+01,9.999999999539567197e-01
1.558685868586858625e+01,9.999999999532805939e-01
1.568676867686768617e+01,9.999999999525981398e-01
1.578667866786678609e+01,9.999999999519100236e-01
1.588658865886588600e+01,9.999999999512152460e-01
1.598649864986498592e+01,9.999999999505143622e-01
1.608640864086408584e+01,9.999999999498073722e-01
1.618631863186318753e+01,9.999999999490941649e-01
1.628622862286228568e+01,9.999999999483741853e-01
1.638613861386138382e+01,9.999999999476483215e-01
1.648604860486048551e+01,9.999999999469156853e-01
1.658595859585958721e+01,9.999999999461771649e-01
1.668586858685868535e+01,9.999999999454315391e-01
1.678577857785778349e+01,9.999999999446804733e-01
1.688568856885688518e+01,9.999999999439217468e-01
1.698559855985598688e+01,9.999999999431578024e-01
1.708550855085508502e+01,9.999999999423864194e-01
1.718541854185418316e+01,9.999999999416084862e-01
1.728532853285328486e+01,9.999999999408241136e-01
1.738523852385238300e+01,9.999999999400330797e-01
1.748514851485148469e+01,9.999999999392352734e-01
1.758505850585058283e+01,9.999999999384306948e-01
1.768496849684968453e+01,9.999999999376197879e-01
1.778487848784878267e+01,9.999999999368016645e-01
1.788478847884788436e+01,9.999999999359768799e-01
1.798469846984698250e+01,9.999999999351448787e-01
1.808460846084608420e+01,9.999999999343065493e-01
1.818451845184518234e+01,9.999999999334611145e-01
1.828442844284428404e+01,9.999999999326087963e-01
1.838433843384338218e+01,9.999999999317495947e-01
1.848424842484248387e+01,9.999999999308831766e-01
1.858415841584158201e+01,9.999999999300094311e-01
1.868406840684068371e+01,9.999999999291291353e-01
1.878397839783978185e+01,9.999999999282414009e-01
1.888388838883888354e+01,9.999999999273465612e-01
1.898379837983798168e+01,9.999999999264446160e-01
1.908370837083708338e+01,9.999999999255357874e-01
1.918361836183618152e+01,9.999999999246187432e-01
1.928352835283528321e+01,9.999999999236952597e-01
1.938343834383438136e+01,9.999999999227640046e-01
1.948334833483348305e+01,9.999999999218256441e-01
1.958325832583258119e+01,9.999999999208796231e-01
1.968316831683168289e+01,9.999999999199263856e-01
1.978307830783078103e+01,9.999999999189655986e-01
1.988298829882988272e+01,9.999999999179972621e-01
1.998289828982898086e+01,9.999999999170212650e-01
2.008280828082808256e+01,9.999999999160379405e-01
2.018271827182718070e+01,9.999999999150467334e-01
2.028262826282628239e+01,9.999999999140481988e-01
2.038253825382538054e+01,9.999999999130415596e-01
2.048244824482448223e+01,9.999999999120274818e-01
2.058235823582358037e+01,9.999999999110052995e-01
2.068226822682268207e+01,9.999999999099751236e-01
2.078217821782178021e+01,9.999999999089376201e-01
2.088208820882088190e+01,9.999999999078921231e-01
2.098199819981998004e+01,9.999999999068382994e-01
2.108190819081908174e+01,9.999999999057771483e-01
2.118181818181817988e+01,9.999999999047076704e-01
2.128172817281728157e+01,9.999999999036296439e-01
2.138163816381637972e+01,9.999999999025440678e-01
2.148154815481548141e+01,9.999999999014504981e-01
2.158145814581457955e+01,9.999999999003480466e-01
2.168136813681368125e+01,9.999999998992380457e-01
2.178127812781277939e+01,9.999999998981197180e-01
2.188118811881188108e+01,9.999999998969926196e-01
2.198109810981097922e+01,9.999999998958577496e-01
2.208100810081008092e+01,9.999999998947138868e-01
2.218091809180917906e+01,9.999999998935621415e-01
2.228082808280828075e+01,9.999999998924016253e-01
2.238073807380737890e+01,9.999999998912325605e-01
2.248064806480648059e+01,9.999999998900550580e-01
2.258055805580557873e+01,9.999999998888684516e-01
2.268046804680468043e+01,9.999999998876737406e-01
2.278037803780377857e+01,9.999999998864705919e-01
2.288028802880288026e+01,9.999999998852585614e-01
2.298019801980197840e+01,9.999999998840373161e-01
2.308010801080108010e+01,9.999999998828073000e-01
2.318001800180017824e+01,9.999999998815685132e-01
2.327992799279927993e+01,9.999999998803208445e-01
2.337983798379837808e+01,9.999999998790645162e-01
2.347974797479747977e+01,9.999999998777988619e-01
2.357965796579657791e+01,9.999999998765239928e-01
2.367956795679567961e+01,9.999999998752400199e-01
2.377947794779477775e+01,9.999999998739471652e-01
2.387938793879387944e+01,9.999999998726453176e-01
2.397929792979297758e+01,9.999999998713337002e-01
2.407920792079207928e+01,9.999999998700129789e-01
2.417911791179117742e+01,9.999999998686830427e-01
2.427902790279027911e+01,9.999999998673435586e-01
2.437893789378937726e+01,9.999999998659949707e-01
2.447884788478847895e+01,9.999999998646368349e-01
2.457875787578757709e+01,9.999999998632685960e-01
2.467866786678667879e+01,9.999999998618912533e-01
2.477857785778577693e+01,9.999999998605042517e-01
2.487848784878487862e+01,9.999999998591072581e-01
2.497839783978397676e+01,9.999999998577009386e-01
2.507830783078307846e+01,9.999999998562847381e-01
2.517821782178217660e+01,9.999999998548583235e-01
2.527812781278127829e+01,9.999999998534229162e-01
2.537803780378037644e+01,9.999999998519767397e-01
2.547794779477947813e+01,9.999999998505209042e-01
2.557785778577857627e+01,9.999999998490551878e-01
2.567776777677767797e+01,9.999999998475789242e-01
2.577767776777677611e+01,9.999999998460926687e-01
2.587758775877587780e+01,9.999999998445965321e-01
2.597749774977497594e+01,9.999999998430897374e-01
2.607740774077407764e+01,9.999999998415728397e-01
2.617731773177317578e+01,9.999999998400455059e-01
2.627722772277227747e+01,9.999999998385078470e-01
2.637713771377137562e+01,9.999999998369594190e-01
2.647704770477047731e+01,9.999999998354013320e-01
2.657695769576957545e+01,9.999999998338316987e-01
2.667686768676867359e+01,9.999999998322519623e-01
2.677677767776777529e+01,9.999999998306612348e-01
2.687668766876687343e+01,9.999999998290600711e-01
2.697659765976597512e+01,9.999999998274476942e-01
2.707650765076507327e+01,9.999999998258246592e-01
2.717641764176417496e+01,9.999999998241907440e-01
2.727632763276327310e+01,9.999999998225458375e-01
2.737623762376237480e+01,9.999999998208899399e-01
2.747614761476147294e+01,9.999999998192231621e-01
2.757605760576057463e+01,9.999999998175449489e-01
2.767596759675967277e+01,9.999999998158553005e-01
2.777587758775877447e+01,9.999999998141548829e-01
2.787578757875787261e+01,9.999999998124430300e-01
2.797569756975697430e+01,9.999999998107197419e-01
2.807560756075607244e+01,9.999999998089845743e-01
2.817551755175517414e+01,9.999999998072381935e-01
2.827542754275427228e+01,9.999999998054804884e-01
2.837533753375337398e+01,9.999999998037110149e-01
2.847524752475247212e+01,9.999999998019295511e-01
2.857515751575157381e+01,9.999999998001366519e-01
2.867506750675067195e+01,9.999999997983320954e-01
2.877497749774977365e+01,9.999999997965154375e-01
2.887488748874887179e+01,9.999999997946866781e-01
2.897479747974797348e+01,9.999999997928458173e-01
2.907470747074707162e+01,9.999999997909932992e-01
2.917461746174617332e+01,9.999999997891281245e-01
2.927452745274527146e+01,9.999999997872507373e-01
2.937443744374437316e+01,9.999999997853619149e-01
2.947434743474347130e+01,9.999999997834601029e-01
2.957425742574257299e+01,9.999999997815457453e-01
2.967416741674167113e+01,9.999999997796195084e-01
2.977407740774077283e+01,9.999999997776801708e-01
2.987398739873987097e+01,9.999999997757285097e-01
2.997389738973897266e+01,9.999999997737638591e-01
3.007380738073807080e+01,9.999999997717865519e-01
3.017371737173717250e+01,9.999999997697969212e-01
3.027362736273627064e+01,9.999999997677936348e-01
3.037353735373537233e+01,9.999999997657779138e-01
3.047344734473447048e+01,9.999999997637490923e-01
3.057335733573357217e+01,9.999999997617069480e-01
3.067326732673267031e+01,9.999999997596521473e-01
3.077317731773177201e+01,9.999999997575836908e-01
3.087308730873087015e+01,9.999999997555018005e-01
3.097299729972997184e+01,9.999999997534066987e-01
3.107290729072906998e+01,9.999999997512982741e-01
3.117281728172817168e+01,9.999999997491757497e-01
3.127272727272726982e+01,9.999999997470402358e-01
3.137263726372637151e+01,9.999999997448905109e-01
3.147254725472546966e+01,9.999999997427276854e-01
3.157245724572457135e+01,9.999999997405505381e-01
3.167236723672366949e+01,9.999999997383599570e-01
3.177227722772277119e+01,9.999999997361543880e-01
3.187218721872186933e+01,9.999999997339354962e-01
3.197209720972097102e+01,9.999999997317022826e-01
3.207200720072006561e+01,9.999999997294550802e-01
3.217191719171917441e+01,9.999999997271932228e-01
3.227182718271826900e+01,9.999999997249171546e-01
3.237173717371737069e+01,9.999999997226269866e-01
3.247164716471647239e+01,9.999999997203217195e-01
3.257155715571556698e+01,9.999999997180020195e-01
3.267146714671466867e+01,9.999999997156674425e-01
3.277137713771377037e+01,9.999999997133183216e-01
3.287128712871286496e+01,9.999999997109542127e-01
3.297119711971197376e+01,9.999999997085751158e-01
3.307110711071106834e+01,9.999999997061811419e-01
3.317101710171017004e+01,9.999999997037716248e-01
3.327092709270927173e+01,9.999999997013471198e-01
3.337083708370836632e+01,9.999999996989075157e-01
3.347074707470746802e+01,9.999999996964522575e-01
3.357065706570656971e+01,9.999999996939820113e-01
3.367056705670567140e+01,9.999999996914956668e-01
3.377047704770476599e+01,9.999999996889935572e-01
3.387038703870386769e+01,9.999999996864763485e-01
3.397029702970296938e+01,9.999999996839427086e-01
3.407020702070207108e+01,9.999999996813938585e-01
3.417011701170116567e+01,9.999999996788283552e-01
3.427002700270026736e+01,9.999999996762470866e-01
3.436993699369936905e+01,9.999999996736497199e-01
3.446984698469847075e+01,9.999999996710356998e-01
3.456975697569756534e+01,9.999999996684055814e-01
3.466966696669666703e+01,9.999999996657590318e-01
3.476957695769576873e+01,9.999999996630954957e-01
3.486948694869487042e+01,9.999999996604154173e-01
3.496939693969396501e+01,9.999999996577192407e-01
3.506930693069306670e+01,9.999999996550055226e-01
3.516921692169216840e+01,9.999999996522748180e-01
3.526912691269127009e+01,9.999999996495277932e-01
3.536903690369036468e+01,9.999999996467630048e-01
3.546894689468946638e+01,9.999999996439811190e-01
3.556885688568856807e+01,9.999999996411820247e-01
3.566876687668766976e+01,9.999999996383653889e-01
3.576867686768676435e+01,9.999999996355313225e-01
3.586858685868586605e+01,9.999999996326794927e-01
3.596849684968496774e+01,9.999999996298100102e-01
3.606840684068406944e+01,9.999999996269226532e-01
3.616831683168316403e+01,9.999999996240173106e-01
3.626822682268226572e+01,9.999999996210940933e-01
3.636813681368136741e+01,9.999999996181521134e-01
3.646804680468046911e+01,9.999999996151927029e-01
3.656795679567956370e+01,9.999999996122143076e-01
3.666786678667866539e+01,9.999999996092175936e-01
3.676777677767776709e+01,9.999999996062027829e-01
3.686768676867686878e+01,9.999999996031685434e-01
3.696759675967596337e+01,9.999999996001156521e-01
3.706750675067506506e+01,9.999999995970442201e-01
3.716741674167416676e+01,9.999999995939535813e-01
3.726732673267326845e+01,9.999999995908438466e-01
3.736723672367236304e+01,9.999999995877145720e-01
3.746714671467146474e+01,9.999999995845664236e-01
3.756705670567056643e+01,9.999999995813984022e-01
3.766696669666966812e+01,9.999999995782109519e-01
3.776687668766876271e+01,9.999999995750039616e-01
3.786678667866786441e+01,9.999999995717769874e-01
3.796669666966696610e+01,9.999999995685293630e-01
3.806660666066606780e+01,9.999999995652627538e-01
3.816651665166516239e+01,9.999999995619757165e-01
3.826642664266426408e+01,9.999999995586680290e-01
3.836633663366336577e+01,9.999999995553400245e-01
3.846624662466246747e+01,9.999999995519915919e-01
3.856615661566156206e+01,9.999999995486221760e-01
3.866606660666066375e+01,9.999999995452324431e-01
3.876597659765976545e+01,9.999999995418215049e-01
3.886588658865886714e+01,9.999999995383895834e-01
3.896579657965796173e+01,9.999999995349366788e-01
3.906570657065706342e+01,9.999999995314623469e-01
3.916561656165616512e+01,9.999999995279665876e-01
3.926552655265526681e+01,9.999999995244496231e-01
3.936543654365436140e+01,9.999999995209105652e-01
3.946534653465346310e+01,9.999999995173494138e-01
3.956525652565256479e+01,9.999999995137667241e-01
3.966516651665165938e+01,9.999999995101617190e-01
3.976507650765076107e+01,9.999999995065351754e-01
3.986498649864986277e+01,9.999999995028856503e-01
3.996489648964896446e+01,9.999999994992136987e-01
4.006480648064805905e+01,9.999999994955192095e-01
4.016471647164716074e+01,9.999999994918017387e-01
4.026462646264626244e+01,9.999999994880615084e-01
4.036453645364536413e+01,9.999999994842985185e-01
4.046444644464445872e+01,9.999999994805116588e-01
4.056435643564356042e+01,9.999999994767025946e-01
4.066426642664266211e+01,9.999999994728695496e-01
4.076417641764176381e+01,9.999999994690126348e-01
