# wavelength (nm), relative flux
1.000000000000000000e+00,9.999999999998583355e-01
1.099909990999099918e+00,9.999999999998283595e-01
1.199819981998199836e+00,9.999999999997951639e-01
1.299729972997299754e+00,9.999999999997595257e-01
1.399639963996399672e+00,9.999999999997207789e-01
1.499549954995499590e+00,9.999999999996790345e-01
1.599459945994599508e+00,9.999999999996341815e-01
1.699369936993699426e+00,9.999999999995863309e-01
1.799279927992799344e+00,9.999999999995357047e-01
1.899189918991899262e+00,9.999999999994819699e-01
1.999099909990999180e+00,9.999999999994249045e-01
2.099009900990099098e+00,9.999999999993650635e-01
2.198919891989199016e+00,9.999999999993021138e-01
2.298829882988298934e+00,9.999999999992362776e-01
2.398739873987398852e+00,9.999999999991672217e-01
2.498649864986498770e+00,9.999999999990949462e-01
2.598559855985598688e+00,9.999999999990197841e-01
2.698469846984698606e+00,9.999999999989414023e-01
2.798379837983798524e+00,9.999999999988596899e-01
2.898289828982898442e+00,9.999999999987749799e-01
2.998199819981998360e+00,9.999999999986871613e-01
3.098109810981097834e+00,9.999999999985959009e-01
3.198019801980197752e+00,9.999999999985017540e-01
3.297929792979297670e+00,9.999999999984040544e-01
3.397839783978397588e+00,9.999999999983036902e-01
3.497749774977497506e+00,9.999999999981996623e-01
3.597659765976597424e+00,9.999999999980920817e-01
3.697569756975697342e+00,9.999999999979813925e-01
3.797479747974797260e+00,9.999999999978678167e-01
3.897389738973897177e+00,9.999999999977506882e-01
3.997299729972997095e+00,9.999999999976304510e-01
4.097209720972097458e+00,9.999999999975066611e-01
4.197119711971197376e+00,9.999999999973797626e-01
4.297029702970297294e+00,9.999999999972492004e-01
4.396939693969397212e+00,9.999999999971154185e-01
4.496849684968497129e+00,9.999999999969781950e-01
4.596759675967597047e+00,9.999999999968377518e-01
4.696669666966696965e+00,9.999999999966933117e-01
4.796579657965796883e+00,9.999999999965456521e-01
4.896489648964896801e+00,9.999999999963946617e-01
4.996399639963996719e+00,9.999999999962403407e-01
5.096309630963095749e+00,9.999999999960825781e-01
5.196219621962195667e+00,9.999999999959212627e-01
5.296129612961295585e+00,9.999999999957562835e-01
5.396039603960395503e+00,9.999999999955878627e-01
5.495949594959495421e+00,9.999999999954157781e-01
5.595859585958595339e+00,9.999999999952403629e-01
5.695769576957695257e+00,9.999999999950613949e-01
5.795679567956795175e+00,9.999999999948784302e-01
5.895589558955895093e+00,9.999999999946921347e-01
5.995499549954995011e+00,9.999999999945022866e-01
6.095409540954094929e+00,9.999999999943088858e-01
6.195319531953194847e+00,9.999999999941113771e-01
6.295229522952294765e+00,9.999999999939102047e-01
6.395139513951394683e+00,9.999999999937055906e-01
6.495049504950494601e+00,9.999999999934976458e-01
6.594959495949594519e+00,9.999999999932853711e-01
6.694869486948694437e+00,9.999999999930692107e-01
6.794779477947794355e+00,9.999999999928498307e-01
6.894689468946894273e+00,9.999999999926264538e-01
6.994599459945994191e+00,9.999999999923993022e-01
7.094509450945094109e+00,9.999999999921682647e-01
7.194419441944194027e+00,9.999999999919335636e-01
7.294329432943293945e+00,9.999999999916947546e-01
7.394239423942393863e+00,9.999999999914522819e-01
7.494149414941493781e+00,9.999999999912057014e-01
7.594059405940593699e+00,9.999999999909555681e-01
7.693969396939693617e+00,9.999999999907013271e-01
7.793879387938793535e+00,9.999999999904429782e-01
7.893789378937893453e+00,9.999999999901810765e-01
7.993699369936993371e+00,9.999999999899146230e-01
8.093609360936092401e+00,9.999999999896443947e-01
8.193519351935194095e+00,9.999999999893703917e-01
8.293429342934292237e+00,9.999999999890921698e-01
8.393339333933393931e+00,9.999999999888099511e-01
8.493249324932492073e+00,9.999999999885235136e-01
8.593159315931593767e+00,9.999999999882331903e-01
8.693069306930691909e+00,9.999999999879386481e-01
8.792979297929793603e+00,9.999999999876403312e-01
8.892889288928891744e+00,9.999999999873375733e-01
8.992799279927993439e+00,9.999999999870305967e-01
9.092709270927091580e+00,9.999999999867197342e-01
9.192619261926191498e+00,9.999999999864043199e-01
9.292529252925291416e+00,9.999999999860847977e-01
9.392439243924391334e+00,9.999999999857610566e-01
9.492349234923491252e+00,9.999999999854330968e-01
9.592259225922591170e+00,9.999999999851006960e-01
9.692169216921691088e+00,9.999999999847642984e-01
9.792079207920791006e+00,9.999999999844232379e-01
9.891989198919890924e+00,9.999999999840778475e-01
9.991899189918990842e+00,9.999999999837284603e-01
1.009180918091809076e+01,9.999999999833742992e-01
1.019171917191719068e+01,9.999999999830160302e-01
1.029162916291629060e+01,9.999999999826533204e-01
1.039153915391539051e+01,9.999999999822861696e-01
1.049144914491449043e+01,9.999999999819141339e-01
1.059135913591359035e+01,9.999999999815382123e-01
1.069126912691269027e+01,9.999999999811572948e-01
1.079117911791179019e+01,9.999999999807722695e-01
1.089108910891089010e+01,9.999999999803824702e-01
1.099099909990999002e+01,9.999999999799880079e-01
1.109090909090908994e+01,9.999999999795894379e-01
1.119081908190818986e+01,9.999999999791855387e-01
1.129072907290728978e+01,9.999999999787774208e-01
1.139063906390638969e+01,9.999999999783648619e-01
1.149054905490548961e+01,9.999999999779473070e-01
1.159045904590458953e+01,9.999999999775253112e-01
1.169036903690368945e+01,9.999999999770983194e-01
1.179027902790278937e+01,9.999999999766663317e-01
1.189018901890188928e+01,9.999999999762304581e-01
1.199009900990098920e+01,9.999999999757890334e-01
1.209000900090008912e+01,9.999999999753428348e-01
1.218991899189918904e+01,9.999999999748920843e-01
1.228982898289828896e+01,9.999999999744363377e-01
1.238973897389738887e+01,9.999999999739758172e-01
1.248964896489648879e+01,9.999999999735103007e-01
1.258955895589558871e+01,9.999999999730402322e-01
1.268946894689468863e+01,9.999999999725647237e-01
1.278937893789378855e+01,9.999999999720845523e-01
1.288928892889288846e+01,9.999999999715992738e-01
1.298919891989198838e+01,9.999999999711086662e-01
1.308910891089108830e+01,9.999999999706137288e-01
1.318901890189018822e+01,9.999999999701131292e-01
1.328892889288928814e+01,9.999999999696079778e-01
1.338883888388838805e+01,9.999999999690972752e-01
1.348874887488748797e+01,9.999999999685814656e-01
1.358865886588658789e+01,9.999999999680606599e-01
1.368856885688568781e+01,9.999999999675346363e-01
1.378847884788478773e+01,9.999999999670036166e-01
1.388838883888388764e+01,9.999999999664668238e-01
1.398829882988298756e+01,9.999999999659248129e-01
1.408820882088208748e+01,9.999999999653778060e-01
1.418811881188118740e+01,9.999999999648256921e-01
1.428802880288028732e+01,9.999999999642678050e-01
1.438793879387938723e+01,9.999999999637048109e-01
1.448784878487848715e+01,9.999999999631364878e-01
1.458775877587758707e+01,9.999999999625625025e-01
1.468766876687668699e+01,9.999999999619835211e-01
1.478757875787578691e+01,9.999999999613985446e-01
1.488748874887488682e+01,9.999999999608083501e-01
1.498739873987398674e+01,9.999999999602124934e-01
1.508730873087308666e+01,9.999999999596113076e-01
1.518721872187218658e+01,9.999999999590043487e-01
1.528712871287128650e+01,9.999999999583917276e-01
1.538703870387038641e+01,9.999999999577739995e-01
1.548694869486948633e+01,9.999999999571499432e-01
1.558685868586858625e+01,9.999999999565205577e-01
1.568676867686768617e+01,9.999999999558853991e-01
1.578667866786678609e+01,9.999999999552448005e-01
1.588658865886588600e+01,9.999999999545980955e-01
1.598649864986498592e+01,9.999999999539458395e-01
1.608640864086408584e+01,9.999999999532878103e-01
1.618631863186318753e+01,9.999999999526235639e-01
1.628622862286228568e+01,9.999999999519535443e-01
1.638613861386138382e+01,9.999999999512778626e-01
1.648604860486048551e+01,9.999999999505960746e-01
1.658595859585958721e+01,9.999999999499082914e-01
1.668586858685868535e+01,9.999999999492144021e-01
1.678577857785778349e+01,9.999999999485147395e-01
1.688568856885688518e+01,9.999999999478089707e-01
1.698559855985598688e+01,9.999999999470975398e-01
1.708550855085508502e+01,9.999999999463793365e-01
1.718541854185418316e+01,9.999999999456555821e-01
1.728532853285328486e+01,9.999999999449251664e-01
1.738523852385238300e+01,9.999999999441889775e-01
1.748514851485148469e+01,9.999999999434460163e-01
1.758505850585058283e+01,9.999999999426970598e-01
1.768496849684968453e+01,9.999999999419418861e-01
1.778487848784878267e+01,9.999999999411808282e-01
1.788478847884788436e+01,9.999999999404126649e-01
1.798469846984698250e+01,9.999999999396383954e-01
1.808460846084608420e+01,9.999999999388577976e-01
1.818451845184518234e+01,9.999999999380708715e-01
1.828442844284428404e+01,9.999999999372775061e-01
1.838433843384338218e+01,9.999999999364775904e-01
1.848424842484248387e+01,9.999999999356710134e-01
1.858415841584158201e+01,9.999999999348575530e-01
1.868406840684068371e+01,9.999999999340378753e-01
1.878397839783978185e+01,9.999999999332116474e-01
1.888388838883888354e+01,9.999999999323787581e-01
1.898379837983798168e+01,9.999999999315387633e-01
1.908370837083708338e+01,9.999999999306925513e-01
1.918361836183618152e+01,9.999999999298393449e-01
1.928352835283528321e+01,9.999999999289791441e-01
1.938343834383438136e+01,9.999999999281122820e-01
1.948334833483348305e+01,9.999999999272387585e-01
1.958325832583258119e+01,9.999999999263581296e-01
1.968316831683168289e+01,9.999999999254705063e-01
1.978307830783078103e+01,9.999999999245762217e-01
1.988298829882988272e+01,9.999999999236748316e-01
1.998289828982898086e+01,9.999999999227661140e-01
2.008280828082808256e+01,9.999999999218504021e-01
2.018271827182718070e+01,9.999999999209279178e-01
2.028262826282628239e+01,9.999999999199979950e-01
2.038253825382538054e+01,9.999999999190611888e-01
2.048244824482448223e+01,9.999999999181170551e-01
2.058235823582358037e+01,9.999999999171651499e-01
2.068226822682268207e+01,9.999999999162064723e-01
2.078217821782178021e+01,9.999999999152402452e-01
2.088208820882088190e+01,9.999999999142669127e-01
2.098199819981998004e+01,9.999999999132856976e-01
2.108190819081908174e+01,9.999999999122977101e-01
2.118181818181817988e+01,9.999999999113020621e-01
2.128172817281728157e+01,9.999999999102985315e-01
2.138163816381637972e+01,9.999999999092880065e-01
2.148154815481548141e+01,9.999999999082695989e-01
2.158145814581457955e+01,9.999999999072435308e-01
2.168136813681368125e+01,9.999999999062100242e-01
2.178127812781277939e+01,9.999999999051684130e-01
2.188118811881188108e+01,9.999999999041191412e-01
2.198109810981097922e+01,9.999999999030625419e-01
2.208100810081008092e+01,9.999999999019978381e-01
2.218091809180917906e+01,9.999999999009253626e-01
2.228082808280828075e+01,9.999999998998447825e-01
2.238073807380737890e+01,9.999999998987565419e-01
2.248064806480648059e+01,9.999999998976601967e-01
2.258055805580557873e+01,9.999999998965557468e-01
2.268046804680468043e+01,9.999999998954431923e-01
2.278037803780377857e+01,9.999999998943225332e-01
2.288028802880288026e+01,9.999999998931942136e-01
2.298019801980197840e+01,9.999999998920570121e-01
2.308010801080108010e+01,9.999999998909120391e-01
2.318001800180017824e+01,9.999999998897590725e-01
2.327992799279927993e+01,9.999999998885972241e-01
2.337983798379837808e+01,9.999999998874274931e-01
2.347974797479747977e+01,9.999999998862487693e-01
2.357965796579657791e+01,9.999999998850621630e-01
2.367956795679567961e+01,9.999999998838668969e-01
2.377947794779477775e+01,9.999999998826627490e-01
2.387938793879387944e+01,9.999999998814504965e-01
2.397929792979297758e+01,9.999999998802295842e-01
2.407920792079207928e+01,9.999999998789999012e-01
2.417911791179117742e+01,9.999999998777617805e-01
2.427902790279027911e+01,9.999999998765145559e-01
2.437893789378937726e+01,9.999999998752586716e-01
2.447884788478847895e+01,9.999999998739942386e-01
2.457875787578757709e+01,9.999999998727203687e-01
2.467866786678667879e+01,9.999999998714380611e-01
2.477857785778577693e+01,9.999999998701464277e-01
2.487848784878487862e+01,9.999999998688459124e-01
2.497839783978397676e+01,9.999999998675364044e-01
2.507830783078307846e+01,9.999999998662179035e-01
2.517821782178217660e+01,9.999999998648897437e-01
2.527812781278127829e+01,9.999999998635531462e-01
2.537803780378037644e+01,9.999999998622065567e-01
2.547794779477947813e+01,9.999999998608511964e-01
2.557785778577857627e+01,9.999999998594865103e-01
2.567776777677767797e+01,9.999999998581119431e-01
2.577767776777677611e+01,9.999999998567280501e-01
2.587758775877587780e+01,9.999999998553348313e-01
2.597749774977497594e+01,9.999999998539321755e-01
2.607740774077407764e+01,9.999999998525197498e-01
2.617731773177317578e+01,9.999999998510976651e-01
2.627722772277227747e+01,9.999999998496658105e-01
2.637713771377137562e+01,9.999999998482241859e-01
2.647704770477047731e+01,9.999999998467730133e-01
2.657695769576957545e+01,9.999999998453117378e-01
2.667686768676867359e+01,9.999999998438409143e-01
2.677677767776777529e+01,9.999999998423597658e-01
2.687668766876687343e+01,9.999999998408687363e-01
2.697659765976597512e+01,9.999999998393672707e-01
2.707650765076507327e+01,9.999999998378561461e-01
2.717641764176417496e+01,9.999999998363348075e-01
2.727632763276327310e+01,9.999999998348032548e-01
2.737623762376237480e+01,9.999999998332615991e-01
2.747614761476147294e+01,9.999999998317096184e-01
2.757605760576057463e+01,9.999999998301469795e-01
2.767596759675967277e+01,9.999999998285735714e-01
2.777587758775877447e+01,9.999999998269902823e-01
2.787578757875787261e+01,9.999999998253961131e-01
2.797569756975697430e+01,9.999999998237918408e-01
2.807560756075607244e+01,9.999999998221759112e-01
2.817551755175517414e+01,9.999999998205501006e-01
2.827542754275427228e+01,9.999999998189134098e-01
2.837533753375337398e+01,9.999999998172656168e-01
2.847524752475247212e+01,9.999999998156069436e-01
2.857515751575157381e+01,9.999999998139373902e-01
2.867506750675067195e+01,9.999999998122569567e-01
2.877497749774977365e+01,9.999999998105655319e-01
2.887488748874887179e+01,9.999999998088628939e-01
2.897479747974797348e+01,9.999999998071488205e-01
2.907470747074707162e+01,9.999999998054236450e-01
2.917461746174617332e+01,9.999999998036870341e-01
2.927452745274527146e+01,9.999999998019390990e-01
2.937443744374437316e+01,9.999999998001801726e-01
2.947434743474347130e+01,9.999999997984094779e-01
2.957425742574257299e+01,9.999999997966269039e-01
2.967416741674167113e+01,9.999999997948328945e-01
2.977407740774077283e+01,9.999999997930271167e-01
2.987398739873987097e+01,9.999999997912100147e-01
2.997389738973897266e+01,9.999999997893804782e-01
3.007380738073807080e+01,9.999999997875396174e-01
3.017371737173717250e+01,9.999999997856867662e-01
3.027362736273627064e+01,9.999999997838217025e-01
3.037353735373537233e+01,9.999999997819445374e-01
3.047344734473447048e+01,9.999999997800553819e-01
3.057335733573357217e+01,9.999999997781537919e-01
3.067326732673267031e+01,9.999999997762403225e-01
3.077317731773177201e+01,9.999999997743140856e-01
3.087308730873087015e+01,9.999999997723759693e-01
3.097299729972997184e+01,9.999999997704248633e-01
3.107290729072906998e+01,9.999999997684615449e-01
3.117281728172817168e+01,9.999999997664854590e-01
3.127272727272726982e+01,9.999999997644966054e-01
3.137263726372637151e+01,9.999999997624953174e-01
3.147254725472546966e+01,9.999999997604808177e-01
3.157245724572457135e+01,9.999999997584535505e-01
3.167236723672366949e+01,9.999999997564138488e-01
3.177227722772277119e+01,9.999999997543603802e-01
3.187218721872186933e+01,9.999999997522939221e-01
3.197209720972097102e+01,9.999999997502145854e-01
3.207200720072006561e+01,9.999999997481217040e-01
3.217191719171917441e+01,9.999999997460158330e-01
3.227182718271826900e+01,9.999999997438964172e-01
3.237173717371737069e+01,9.999999997417635678e-01
3.247164716471647239e+01,9.999999997396170626e-01
3.257155715571556698e+01,9.999999997374572347e-01
3.267146714671466867e+01,9.999999997352834180e-01
3.277137713771377037e+01,9.999999997330958346e-01
3.287128712871286496e+01,9.999999997308945954e-01
3.297119711971197376e+01,9.999999997286789233e-01
3.307110711071106834e+01,9.999999997264498175e-01
3.317101710171017004e+01,9.999999997242061678e-01
3.327092709270927173e+01,9.999999997219486403e-01
3.337083708370836632e+01,9.999999997196769019e-01
3.347074707470746802e+01,9.999999997173908417e-01
3.357065706570656971e+01,9.999999997150901265e-01
3.367056705670567140e+01,9.999999997127752005e-01
3.377047704770476599e+01,9.999999997104451754e-01
3.387038703870386769e+01,9.999999997081013836e-01
3.397029702970296938e+01,9.999999997057421597e-01
3.407020702070207108e+01,9.999999997033682808e-01
3.417011701170116567e+01,9.999999997009794139e-01
3.427002700270026736e+01,9.999999996985756701e-01
3.436993699369936905e+01,9.999999996961571602e-01
3.446984698469847075e+01,9.999999996937228852e-01
3.456975697569756534e+01,9.999999996912740663e-01
3.466966696669666703e+01,9.999999996888092602e-01
3.476957695769576873e+01,9.999999996863293550e-01
3.486948694869487042e+01,9.999999996838340177e-01
3.496939693969396501e+01,9.999999996813226932e-01
3.506930693069306670e+01,9.999999996787959367e-01
3.516921692169216840e+01,9.999999996762536369e-01
3.526912691269127009e+01,9.999999996736952390e-01
3.536903690369036468e+01,9.999999996711207428e-01
3.546894689468946638e+01,9.999999996685300374e-01
3.556885688568856807e+01,9.999999996659235668e-01
3.566876687668766976e+01,9.999999996633006649e-01
3.576867686768676435e+01,9.999999996606614427e-01
3.586858685868586605e+01,9.999999996580060113e-01
3.596849684968496774e+01,9.999999996553338155e-01
3.606840684068406944e+01,9.999999996526454105e-01
3.616831683168316403e+01,9.999999996499400190e-01
3.626822682268226572e+01,9.999999996472176411e-01
3.636813681368136741e+01,9.999999996444781658e-01
3.646804680468046911e+01,9.999999996417223702e-01
3.656795679567956370e+01,9.999999996389490331e-01
3.666786678667866539e+01,9.999999996361587096e-01
3.676777677767776709e+01,9.999999996333510666e-01
3.686768676867686878e+01,9.999999996305255490e-01
3.696759675967596337e+01,9.999999996276829339e-01
3.706750675067506506e+01,9.999999996248224443e-01
3.716741674167416676e+01,9.999999996219446352e-01
3.726732673267326845e+01,9.999999996190489515e-01
3.736723672367236304e+01,9.999999996161348381e-01
3.746714671467146474e+01,9.999999996132032942e-01
3.756705670567056643e+01,9.999999996102533206e-01
3.766696669666966812e+01,9.999999996072851394e-01
3.776687668766876271e+01,9.999999996042986394e-01
3.786678667866786441e+01,9.999999996012937098e-01
3.796669666966696610e+01,9.999999995982699064e-01
3.806660666066606780e+01,9.999999995952278953e-01
3.816651665166516239e+01,9.999999995921668994e-01
3.826642664266426408e+01,9.999999995890868076e-01
3.836633663366336577e+01,9.999999995859877311e-01
3.846624662466246747e+01,9.999999995828695587e-01
3.856615661566156206e+01,9.999999995797321795e-01
3.866606660666066375e+01,9.999999995765757044e-01
3.876597659765976545e+01,9.999999995733992453e-01
3.886588658865886714e+01,9.999999995702033573e-01
3.896579657965796173e+01,9.999999995669881514e-01
3.906570657065706342e+01,9.999999995637527395e-01
3.916561656165616512e+01,9.999999995604972325e-01
3.926552655265526681e+01,9.999999995572221856e-01
3.936543654365436140e+01,9.999999995539265996e-01
3.946534653465346310e+01,9.999999995506108075e-01
3.956525652565256479e+01,9.999999995472744763e-01
3.966516651665165938e+01,9.999999995439176059e-01
3.976507650765076107e+01,9.999999995405400854e-01
3.986498649864986277e+01,9.999999995371416928e-01
3.996489648964896446e+01,9.999999995337225389e-01
4.006480648064805905e+01,9.999999995302819578e-01
4.016471647164716074e+01,9.999999995268205044e-01
4.026462646264626244e+01,9.999999995233375127e-01
4.036453645364536413e+01,9.999999995198329827e-01
4.046444644464445872e+01,9.999999995163073585e-01
4.056435643564356042e+01,9.999999995127597519e-01
4.066426642664266211e+01,9.999999995091902738e-01
4.076417641764176381e+01,9.999999995055989244e-01
