# wavelength (nm), relative flux
1.000000000000000000e+00,9.999999999997943867e-01
1.099909990999099918e+00,9.999999999997509770e-01
1.199819981998199836e+00,9.999999999997031264e-01
1.299729972997299754e+00,9.999999999996509459e-01
1.399639963996399672e+00,9.999999999995946576e-01
1.499549954995499590e+00,9.999999999995335953e-01
1.599459945994599508e+00,9.999999999994684252e-01
1.699369936993699426e+00,9.999999999993987032e-01
1.799279927992799344e+00,9.999999999993248734e-01
1.899189918991899262e+00,9.999999999992463806e-01
1.999099909990999180e+00,9.999999999991632249e-01
2.099009900990099098e+00,9.999999999990757393e-01
2.198919891989199016e+00,9.999999999989837018e-01
2.298829882988298934e+00,9.999999999988868904e-01
2.398739873987398852e+00,9.999999999987864152e-01
2.498649864986498770e+00,9.999999999986804999e-01
2.598559855985598688e+00,9.999999999985698107e-01
2.698469846984698606e+00,9.999999999984550136e-01
2.798379837983798524e+00,9.999999999983352206e-01
2.898289828982898442e+00,9.999999999982108756e-01
2.998199819981998360e+00,9.999999999980815346e-01
3.098109810981097834e+00,9.999999999979479748e-01
3.198019801980197752e+00,9.999999999978090859e-01
3.297929792979297670e+00,9.999999999976650900e-01
3.397839783978397588e+00,9.999999999975169862e-01
3.497749774977497506e+00,9.999999999973637754e-01
3.597659765976597424e+00,9.999999999972055686e-01
3.697569756975697342e+00,9.999999999970422548e-01
3.797479747974797260e+00,9.999999999968743891e-01
3.897389738973897177e+00,9.999999999967011943e-01
3.997299729972997095e+00,9.999999999965232256e-01
4.097209720972097458e+00,9.999999999963401498e-01
4.197119711971197376e+00,9.999999999961518560e-01
4.297029702970297294e+00,9.999999999959585661e-01
4.396939693969397212e+00,9.999999999957600583e-01
4.496849684968497129e+00,9.999999999955563323e-01
4.596759675967597047e+00,9.999999999953478325e-01
4.696669666966696965e+00,9.999999999951336704e-01
4.796579657965796883e+00,9.999999999949144014e-01
4.896489648964896801e+00,9.999999999946896923e-01
4.996399639963996719e+00,9.999999999944597651e-01
5.096309630963095749e+00,9.999999999942248419e-01
5.196219621962195667e+00,9.999999999939839235e-01
5.296129612961295585e+00,9.999999999937380091e-01
5.396039603960395503e+00,9.999999999934865436e-01
5.495949594959495421e+00,9.999999999932296380e-01
5.595859585958595339e+00,9.999999999929672923e-01
5.695769576957695257e+00,9.999999999926989513e-01
5.795679567956795175e+00,9.999999999924256144e-01
5.895589558955895093e+00,9.999999999921463933e-01
5.995499549954995011e+00,9.999999999918616211e-01
6.095409540954094929e+00,9.999999999915709648e-01
6.195319531953194847e+00,9.999999999912747572e-01
6.295229522952294765e+00,9.999999999909725545e-01
6.395139513951394683e+00,9.999999999906649117e-01
6.495049504950494601e+00,9.999999999903513848e-01
6.594959495949594519e+00,9.999999999900317516e-01
6.694869486948694437e+00,9.999999999897065672e-01
6.794779477947794355e+00,9.999999999893756097e-01
6.894689468946894273e+00,9.999999999890382130e-01
6.994599459945994191e+00,9.999999999886952651e-01
7.094509450945094109e+00,9.999999999883456558e-01
7.194419441944194027e+00,9.999999999879904955e-01
7.294329432943293945e+00,9.999999999876292289e-01
7.394239423942393863e+00,9.999999999872617451e-01
7.494149414941493781e+00,9.999999999868877110e-01
7.594059405940593699e+00,9.999999999865082367e-01
7.693969396939693617e+00,9.999999999861219901e-01
7.793879387938793535e+00,9.999999999857296373e-01
7.893789378937893453e+00,9.999999999853309562e-01
7.993699369936993371e+00,9.999999999849257248e-01
8.093609360936092401e+00,9.999999999845142762e-01
8.193519351935194095e+00,9.999999999840964993e-01
8.293429342934292237e+00,9.999999999836717279e-01
8.393339333933393931e+00,9.999999999832407394e-01
8.493249324932492073e+00,9.999999999828032005e-01
8.593159315931593767e+00,9.999999999823590002e-01
8.693069306930691909e+00,9.999999999819079166e-01
8.792979297929793603e+00,9.999999999814506157e-01
8.892889288928891744e+00,9.999999999809863205e-01
8.992799279927993439e+00,9.999999999805153639e-01
9.092709270927091580e+00,9.999999999800371908e-01
9.192619261926191498e+00,9.999999999795529115e-01
9.292529252925291416e+00,9.999999999790613048e-01
9.392439243924391334e+00,9.999999999785623706e-01
9.492349234923491252e+00,9.999999999780569970e-01
9.592259225922591170e+00,9.999999999775442960e-01
9.692169216921691088e+00,9.999999999770247117e-01
9.792079207920791006e+00,9.999999999764975778e-01
9.891989198919890924e+00,9.999999999759637825e-01
9.991899189918990842e+00,9.999999999754227709e-01
1.009180918091809076e+01,9.999999999748744317e-01
1.019171917191719068e+01,9.999999999743182100e-01
1.029162916291629060e+01,9.999999999737549938e-01
1.039153915391539051e+01,9.999999999731846723e-01
1.049144914491449043e+01,9.999999999726065791e-01
1.059135913591359035e+01,9.999999999720209365e-01
1.069126912691269027e+01,9.999999999714279664e-01
1.079117911791179019e+01,9.999999999708271137e-01
1.089108910891089010e+01,9.999999999702188225e-01
1.099099909990999002e+01,9.999999999696025377e-01
1.109090909090908994e+01,9.999999999689791474e-01
1.119081908190818986e+01,9.999999999683476526e-01
1.129072907290728978e+01,9.999999999677080531e-01
1.139063906390638969e+01,9.999999999670609041e-01
1.149054905490548961e+01,9.999999999664054284e-01
1.159045904590458953e+01,9.999999999657421812e-01
1.169036903690368945e+01,9.999999999650704963e-01
1.179027902790278937e+01,9.999999999643909288e-01
1.189018901890188928e+01,9.999999999637033676e-01
1.199009900990098920e+01,9.999999999630073688e-01
1.209000900090008912e+01,9.999999999623029323e-01
1.218991899189918904e+01,9.999999999615902802e-01
1.228982898289828896e+01,9.999999999608694123e-01
1.238973897389738887e+01,9.999999999601401068e-01
1.248964896489648879e+01,9.999999999594023636e-01
1.258955895589558871e+01,9.999999999586555166e-01
1.268946894689468863e+01,9.999999999579005650e-01
1.278937893789378855e+01,9.999999999571365095e-01
1.288928892889288846e+01,9.999999999563636832e-01
1.298919891989198838e+01,9.999999999555824193e-01
1.308910891089108830e+01,9.999999999547922735e-01
1.318901890189018822e+01,9.999999999539931350e-01
1.328892889288928814e+01,9.999999999531851147e-01
1.338883888388838805e+01,9.999999999523676575e-01
1.348874887488748797e+01,9.999999999515412075e-01
1.358865886588658789e+01,9.999999999507054316e-01
1.368856885688568781e+01,9.999999999498606629e-01
1.378847884788478773e+01,9.999999999490066793e-01
1.388838883888388764e+01,9.999999999481432589e-01
1.398829882988298756e+01,9.999999999472700685e-01
1.408820882088208748e+01,9.999999999463875522e-01
1.418811881188118740e+01,9.999999999454955990e-01
1.428802880288028732e+01,9.999999999445936538e-01
1.438793879387938723e+01,9.999999999436821607e-01
1.448784878487848715e+01,9.999999999427611197e-01
1.458775877587758707e+01,9.999999999418298646e-01
1.468766876687668699e+01,9.999999999408887286e-01
1.478757875787578691e+01,9.999999999399377115e-01
1.488748874887488682e+01,9.999999999389765915e-01
1.498739873987398674e+01,9.999999999380051463e-01
1.508730873087308666e+01,9.999999999370237092e-01
1.518721872187218658e+01,9.999999999360315028e-01
1.528712871287128650e+01,9.999999999350294155e-01
1.538703870387038641e+01,9.999999999340170032e-01
1.548694869486948633e+01,9.999999999329933775e-01
1.558685868586858625e+01,9.999999999319595378e-01
1.568676867686768617e+01,9.999999999309149290e-01
1.578667866786678609e+01,9.999999999298595510e-01
1.588658865886588600e+01,9.999999999287932928e-01
1.598649864986498592e+01,9.999999999277161544e-01
1.608640864086408584e+01,9.999999999266278028e-01
1.618631863186318753e+01,9.999999999255284600e-01
1.628622862286228568e+01,9.999999999244177928e-01
1.638613861386138382e+01,9.999999999232960235e-01
1.648604860486048551e+01,9.999999999221627078e-01
1.658595859585958721e+01,9.999999999210181789e-01
1.668586858685868535e+01,9.999999999198615486e-01
1.678577857785778349e+01,9.999999999186938160e-01
1.688568856885688518e+01,9.999999999175139820e-01
1.698559855985598688e+01,9.999999999163229347e-01
1.708550855085508502e+01,9.999999999151193419e-01
1.718541854185418316e+01,9.999999999139038698e-01
1.728532853285328486e+01,9.999999999126764072e-01
1.738523852385238300e+01,9.999999999114367322e-01
1.748514851485148469e+01,9.999999999101844006e-01
1.758505850585058283e+01,9.999999999089198566e-01
1.768496849684968453e+01,9.999999999076428780e-01
1.778487848784878267e+01,9.999999999063532430e-01
1.788478847884788436e+01,9.999999999050506183e-01
1.798469846984698250e+01,9.999999999037352261e-01
1.808460846084608420e+01,9.999999999024072883e-01
1.818451845184518234e+01,9.999999999010658058e-01
1.828442844284428404e+01,9.999999998997114448e-01
1.838433843384338218e+01,9.999999998983437610e-01
1.848424842484248387e+01,9.999999998969628656e-01
1.858415841584158201e+01,9.999999998955680924e-01
1.868406840684068371e+01,9.999999998941598855e-01
1.878397839783978185e+01,9.999999998927375788e-01
1.888388838883888354e+01,9.999999998913018384e-01
1.898379837983798168e+01,9.999999998898522202e-01
1.908370837083708338e+01,9.999999998883886132e-01
1.918361836183618152e+01,9.999999998869101292e-01
1.928352835283528321e+01,9.999999998854176564e-01
1.938343834383438136e+01,9.999999998839108617e-01
1.948334833483348305e+01,9.999999998823889680e-01
1.958325832583258119e+01,9.999999998808524193e-01
1.968316831683168289e+01,9.999999998793013267e-01
1.978307830783078103e+01,9.999999998777350241e-01
1.988298829882988272e+01,9.999999998761535114e-01
1.998289828982898086e+01,9.999999998745567886e-01
2.008280828082808256e+01,9.999999998729446338e-01
2.018271827182718070e+01,9.999999998713169358e-01
2.028262826282628239e+01,9.999999998696734727e-01
2.038253825382538054e+01,9.999999998680136892e-01
2.048244824482448223e+01,9.999999998663386958e-01
2.058235823582358037e+01,9.999999998646469379e-01
2.068226822682268207e+01,9.999999998629387488e-01
2.078217821782178021e+01,9.999999998612145724e-01
2.088208820882088190e+01,9.999999998594732986e-01
2.098199819981998004e+01,9.999999998577149274e-01
2.108190819081908174e+01,9.999999998559403469e-01
2.118181818181817988e+01,9.999999998541477808e-01
2.128172817281728157e+01,9.999999998523378952e-01
2.138163816381637972e+01,9.999999998505109122e-01
2.148154815481548141e+01,9.999999998486663877e-01
2.158145814581457955e+01,9.999999998468034335e-01
2.168136813681368125e+01,9.999999998449221605e-01
2.178127812781277939e+01,9.999999998430235681e-01
2.188118811881188108e+01,9.999999998411057689e-01
2.198109810981097922e+01,9.999999998391696510e-01
2.208100810081008092e+01,9.999999998372142151e-01
2.218091809180917906e+01,9.999999998352402386e-01
2.228082808280828075e+01,9.999999998332466111e-01
2.238073807380737890e+01,9.999999998312335547e-01
2.248064806480648059e+01,9.999999998292010694e-01
2.258055805580557873e+01,9.999999998271481561e-01
2.268046804680468043e+01,9.999999998250751476e-01
2.278037803780377857e+01,9.999999998229823772e-01
2.288028802880288026e+01,9.999999998208684016e-01
2.298019801980197840e+01,9.999999998187335537e-01
2.308010801080108010e+01,9.999999998165776116e-01
2.318001800180017824e+01,9.999999998144005753e-01
2.327992799279927993e+01,9.999999998122016676e-01
2.337983798379837808e+01,9.999999998099809995e-01
2.347974797479747977e+01,9.999999998077380159e-01
2.357965796579657791e+01,9.999999998054729389e-01
2.367956795679567961e+01,9.999999998031845472e-01
2.377947794779477775e+01,9.999999998008736180e-01
2.387938793879387944e+01,9.999999997985398181e-01
2.397929792979297758e+01,9.999999997961817044e-01
2.407920792079207928e+01,9.999999997937999430e-01
2.417911791179117742e+01,9.999999997913942007e-01
2.427902790279027911e+01,9.999999997889638115e-01
2.437893789378937726e+01,9.999999997865086643e-01
2.447884788478847895e+01,9.999999997840279820e-01
2.457875787578757709e+01,9.999999997815223196e-01
2.467866786678667879e+01,9.999999997789906780e-01
2.477857785778577693e+01,9.999999997764326132e-01
2.487848784878487862e+01,9.999999997738480140e-01
2.497839783978397676e+01,9.999999997712366584e-01
2.507830783078307846e+01,9.999999997685974362e-01
2.517821782178217660e+01,9.999999997659309026e-01
2.527812781278127829e+01,9.999999997632362803e-01
2.537803780378037644e+01,9.999999997605129032e-01
2.547794779477947813e+01,9.999999997577604383e-01
2.557785778577857627e+01,9.999999997549786634e-01
2.567776777677767797e+01,9.999999997521666906e-01
2.577767776777677611e+01,9.999999997493248527e-01
2.587758775877587780e+01,9.999999997464521506e-01
2.597749774977497594e+01,9.999999997435476962e-01
2.607740774077407764e+01,9.999999997406118224e-01
2.617731773177317578e+01,9.999999997376433081e-01
2.627722772277227747e+01,9.999999997346421532e-01
2.637713771377137562e+01,9.999999997316072475e-01
2.647704770477047731e+01,9.999999997285384801e-01
2.657695769576957545e+01,9.999999997254352957e-01
2.667686768676867359e+01,9.999999997222965842e-01
2.677677767776777529e+01,9.999999997191220125e-01
2.687668766876687343e+01,9.999999997159113585e-01
2.697659765976597512e+01,9.999999997126630680e-01
2.707650765076507327e+01,9.999999997093774740e-01
2.717641764176417496e+01,9.999999997060531332e-01
2.727632763276327310e+01,9.999999997026898235e-01
2.737623762376237480e+01,9.999999996992861018e-01
2.747614761476147294e+01,9.999999996958418569e-01
2.757605760576057463e+01,9.999999996923562007e-01
2.767596759675967277e+01,9.999999996888278009e-01
2.777587758775877447e+01,9.999999996852562134e-01
2.787578757875787261e+01,9.999999996816407721e-01
2.797569756975697430e+01,9.999999996779799227e-01
2.807560756075607244e+01,9.999999996742731101e-01
2.817551755175517414e+01,9.999999996705191130e-01
2.827542754275427228e+01,9.999999996667174873e-01
2.837533753375337398e+01,9.999999996628667898e-01
2.847524752475247212e+01,9.999999996589656881e-01
2.857515751575157381e+01,9.999999996550135162e-01
2.867506750675067195e+01,9.999999996510082756e-01
2.877497749774977365e+01,9.999999996469498553e-01
2.887488748874887179e+01,9.999999996428358129e-01
2.897479747974797348e+01,9.999999996386657042e-01
2.907470747074707162e+01,9.999999996344380859e-01
2.917461746174617332e+01,9.999999996301507377e-01
2.927452745274527146e+01,9.999999996258028823e-01
2.937443744374437316e+01,9.999999996213931874e-01
2.947434743474347130e+01,9.999999996169192107e-01
2.957425742574257299e+01,9.999999996123797308e-01
2.967416741674167113e+01,9.999999996077727493e-01
2.977407740774077283e+01,9.999999996030964899e-01
2.987398739873987097e+01,9.999999995983491763e-01
2.997389738973897266e+01,9.999999995935285879e-01
3.007380738073807080e+01,9.999999995886327264e-01
3.017371737173717250e+01,9.999999995836598154e-01
3.027362736273627064e+01,9.999999995786063023e-01
3.037353735373537233e+01,9.999999995734710767e-01
3.047344734473447048e+01,9.999999995682509191e-01
3.057335733573357217e+01,9.999999995629432759e-01
3.067326732673267031e+01,9.999999995575455936e-01
3.077317731773177201e+01,9.999999995520547635e-01
3.087308730873087015e+01,9.999999995464672331e-01
3.097299729972997184e+01,9.999999995407806708e-01
3.107290729072906998e+01,9.999999995349911908e-01
3.117281728172817168e+01,9.999999995290953514e-01
3.127272727272726982e+01,9.999999995230891559e-01
3.137263726372637151e+01,9.999999995169690514e-01
3.147254725472546966e+01,9.999999995107309303e-01
3.157245724572457135e+01,9.999999995043694634e-01
3.167236723672366949e+01,9.999999994978812090e-01
3.177227722772277119e+01,9.999999994912605050e-01
3.187218721872186933e+01,9.999999994845020224e-01
3.197209720972097102e+01,9.999999994776010981e-01
3.207200720072006561e+01,9.999999994705514039e-01
3.217191719171917441e+01,9.999999994633471667e-01
3.227182718271826900e+01,9.999999994559813921e-01
3.237173717371737069e+01,9.999999994484473076e-01
3.247164716471647239e+01,9.999999994407373638e-01
3.257155715571556698e+01,9.999999994328443442e-01
3.267146714671466867e+01,9.999999994247595891e-01
3.277137713771377037e+01,9.999999994164744388e-01
3.287128712871286496e+01,9.999999994079794563e-01
3.297119711971197376e+01,9.999999993992646496e-01
3.307110711071106834e+01,9.999999993903194717e-01
3.317101710171017004e+01,9.999999993811324872e-01
3.327092709270927173e+01,9.999999993716909286e-01
3.337083708370836632e+01,9.999999993619825833e-01
3.347074707470746802e+01,9.999999993519934627e-01
3.357065706570656971e+01,9.999999993417080235e-01
3.367056705670567140e+01,9.999999993311099455e-01
3.377047704770476599e+01,9.999999993201831305e-01
3.387038703870386769e+01,9.999999993089085937e-01
3.397029702970296938e+01,9.999999992972654628e-01
3.407020702070207108e+01,9.999999992852334207e-01
3.417011701170116567e+01,9.999999992727887088e-01
3.427002700270026736e+01,9.999999992599057919e-01
3.436993699369936905e+01,9.999999992465584686e-01
3.446984698469847075e+01,9.999999992327163190e-01
3.456975697569756534e+01,9.999999992183480346e-01
3.466966696669666703e+01,9.999999992034188656e-01
3.476957695769576873e+01,9.999999991878906203e-01
3.486948694869487042e+01,9.999999991717226644e-01
3.496939693969396501e+01,9.999999991548705891e-01
3.506930693069306670e+01,9.999999991372845454e-01
3.516921692169216840e+01,9.999999991189111315e-01
3.526912691269127009e+01,9.999999990996922827e-01
3.536903690369036468e+01,9.999999990795628291e-01
3.546894689468946638e+01,9.999999990584521603e-01
3.556885688568856807e+01,9.999999990362817837e-01
3.566876687668766976e+01,9.999999990129657679e-01
3.576867686768676435e+01,9.999999989884083007e-01
3.586858685868586605e+01,9.999999989625035779e-01
3.596849684968496774e+01,9.999999989351338048e-01
3.606840684068406944e+01,9.999999989061684191e-01
3.616831683168316403e+01,9.999999988754608715e-01
3.626822682268226572e+01,9.999999988428474040e-01
3.636813681368136741e+01,9.999999988081447189e-01
3.646804680468046911e+01,9.999999987711463145e-01
3.656795679567956370e+01,9.999999987316195993e-01
3.666786678667866539e+01,9.999999986893004511e-01
3.676777677767776709e+01,9.999999986438912192e-01
3.686768676867686878e+01,9.999999985950505099e-01
3.696759675967596337e+01,9.999999985423905224e-01
3.706750675067506506e+01,9.999999984854652801e-01
3.716741674167416676e+01,9.999999984237623041e-01
3.726732673267326845e+01,9.999999983566892903e-01
3.736723672367236304e+01,9.999999982835588996e-01
3.746714671467146474e+01,9.999999982035704393e-01
3.756705670567056643e+01,9.999999981157856599e-01
3.766696669666966812e+01,9.999999980191008886e-01
3.776687668766876271e+01,9.999999979122091709e-01
3.786678667866786441e+01,9.999999977935558615e-01
3.796669666966696610e+01,9.999999976612780062e-01
3.806660666066606780e+01,9.999999975131291796e-01
3.816651665166516239e+01,9.999999973463823411e-01
3.826642664266426408e+01,9.999999971576976066e-01
3.836633663366336577e+01,9.999999969429549385e-01
3.846624662466246747e+01,9.999999966970191112e-01
3.856615661566156206e+01,9.999999964134304031e-01
3.866606660666066375e+01,9.999999960839712765e-01
3.876597659765976545e+01,9.999999956980587523e-01
3.886588658865886714e+01,9.999999952418821003e-01
3.896579657965796173e+01,9.999999946971482867e-01
3.906570657065706342e+01,9.999999940392181319e-01
3.916561656165616512e+01,9.999999932342735764e-01
3.926552655265526681e+01,9.999999922348964398e-01
3.936543654365436140e+01,9.999999909729470060e-01
3.946534653465346310e+01,9.999999893476860802e-01
3.956525652565256479e+01,9.999999872051336114e-01
3.966516651665165938e+01,9.999999843004054867e-01
3.976507650765076107e+01,9.999999802249126546e-01
3.986498649864986277e+01,9.999999742552468929e-01
3.996489648964896446e+01,9.999999650103934545e-01
4.006480648064805905e+01,9.999999495792682991e-01
4.016471647164716074e+01,9.999999209254757382e-01
4.026462646264626244e+01,9.999998582100992905e-01
4.036453645364536413e+01,9.999996746721036001e-01
4.046444644464445872e+01,9.999986083696557060e-01
4.056435643564356042e+01,7.997732866721394274e-01
4.066426642664266211e+01,9.999988240865298472e-01
4.076417641764176381e+01,9.999996959380830219e-01
